0.45618
0.42833
0.39056
0.34439
0.29213
0.23529
0.17692
0.11855
0.063991
0.016303
-0.022993
-0.050844
-0.067252
-0.073743
-0.07184
-0.064596
-0.056591
-0.047821
-0.042105
-0.037913
-0.035248
-0.031057
-0.026103
-0.018861
-0.010092
-0.0028495
0.0028675
0.0047695
0.0036194
-0.0013458
-0.005547
-0.0074603
-0.0063217
-0.00060618
0.0089253
0.018456
0.024934
0.027598
0.024921
0.019956
0.014227
0.011551
0.011925
0.016114
0.021829
0.027544
0.031733
0.033633
0.031718
0.026752
0.022548
0.020632
0.022532
0.027483
0.034723
0.042725
0.049202
0.053389
0.053762
0.052609
0.051455
0.051827
0.054488
0.060963
0.068202
0.076203
0.079626
0.080761
0.07808
0.07311
0.067378
0.065459
0.066593
0.072304
0.07954
0.088302
0.095539
0.099723
0.10162
0.10046
0.10007
0.10044
0.10386
0.10957
0.11756
0.12556
0.12974
0.13164
0.13277
0.13313
0.13426
0.13616
0.14186
0.15062
0.16091
0.17348
0.183
0.18947
0.19365
0.19325
0.19285
0.19398
0.19816
0.20539
0.2172
0.23053
0.24081
0.2488
0.25451
0.25639
0.25752
0.26017
0.26358
0.26852
0.27575
0.28298
0.29021
0.29438
0.2955
0.29357
0.29012
0.28743
0.28778
0.29043
0.29384
0.29725
0.29837
0.29491
0.28764
0.27732
0.26623
0.25819
0.25092
0.24593
0.24324
0.2413
0.23555
0.22599
0.21185
0.19389
0.17593
0.16103
0.14994
0.1419
0.13691
0.13268
0.12693
0.11736
0.10398
0.088308
0.073399
0.060778
0.053497
0.050795
0.05038
0.049965
0.048024
0.043793
0.034985
0.024651
0.014316
0.0055054
0.0005107
9.2658e-005
0.0034892
0.0091734
0.013332
0.012913
0.0086777
0.0013913
-0.0058955
-0.0093686
-0.0097902
-0.0056342
0.0015725
0.011068
0.017511
0.020903
0.019716
0.016239
0.0097116
0.0054713
0.0042826
0.0053825
0.010297
0.01521
0.018598
0.018933
0.016215
0.01121
0.0069656
0.004247
0.00458
0.0094905
0.015927
0.023887
0.029558
0.032941
0.033271
0.029024
0.026301
0.024341
0.026959
0.030339
0.037532
0.044726
0.048867
0.049956
0.046466
0.042214
0.039487
0.038285
0.041661
0.048087
0.056803
0.063991
0.068891
0.069975
0.06648
0.060698
0.055676
0.052944
0.053262
0.057395
0.062291
0.068711
0.072843
0.073159
0.070423
0.064635
0.058845
0.055344
0.055658
0.05826
0.063913
0.071091
0.075218
0.075529
0.072024
0.066231
0.060436
0.05693
0.055713
0.057545
0.063193
0.069604
0.073724
0.074792
0.072045
0.066246
0.060446
0.056935
0.056475
0.059829
0.066233
0.072638
0.077516
0.077815
0.076589
0.07231
0.066504
0.06375
0.063283
0.065106
0.069216
0.074089
0.077435
0.076966
0.074971
0.06916
0.062586
0.0583
0.057064
0.059644
0.065274
0.07243
0.078822
0.082924
0.083211
0.079684
0.075392
0.071099
0.070621
0.071668
0.074241
0.07605
0.077858
0.077376
0.076132
0.071834
0.067537
0.065527
0.065805
0.069898
0.075515
0.081133
0.082935
0.082447
0.078907
0.07384
0.068773
0.065231
0.065502
0.068063
0.072149
0.076996
0.079554
0.081349
0.080091
0.075781
0.069944
0.066395
0.06666
0.071503
0.078633
0.085
0.088315
0.08934
0.085786
0.081468
0.076388
0.072832
0.073854
0.077164
0.083524
0.089884
0.094717
0.095735
0.093701
0.087088
0.078949
0.072334
0.072586
0.075889
0.083005
0.091647
0.097236
0.099773
0.099257
0.09569
0.092121
0.089314
0.091084
0.09438
0.0992
0.10326
0.10731
0.10755
0.10627
0.10117
0.096828
0.094014
0.092725
0.094487
0.099301
0.10488
0.10892
0.10992
0.10863
0.10352
0.09841
0.093299
0.09124
0.092232
0.097038
0.10261
0.10665
0.10764
0.10633
0.10198
0.097628
0.095561
0.096547
0.09982
0.10538
0.11094
0.11497
0.11748
0.11846
0.11639
0.11508
0.1153
0.11704
0.12183
0.12891
0.13522
0.14077
0.14404
0.14348
0.1414
0.13856
0.138
0.13973
0.14375
0.15159
0.15866
0.1642
0.16975
0.17147
0.17244
0.17111
0.17055
0.1738
0.1801
0.18792
0.19728
0.2051
0.20835
0.20701
0.2011
0.19443
0.18699
0.18184
0.17898
0.17612
0.17478
0.17039
0.16371
0.15397
0.14119
0.12916
0.11867
0.11275
0.11064
0.11234
0.11557
0.11804
0.11822
0.11535
0.10942
0.10273
0.09985
0.099261
0.10325
0.108
0.11198
0.11292
0.11156
0.10791
0.10503
0.10443
0.10918
0.12231
0.14537
0.17986
0.22656
0.28394
0.34896
0.4132
0.47287
0.52338
0.56398
0.59465
0.61464
0.62472
0.62106
0.59985
0.56185
0.50783
0.44314
0.37233
0.30382
0.24369
0.19425
0.15701
0.12893
0.10923
0.094119
0.085869
0.081433
0.080048
0.080951
0.084904
0.092673
0.10273
0.11278
0.11978
0.12373
0.1231
0.12019
0.11727
0.11587
0.11676
0.12147
0.1277
0.1347
0.13864
0.14029
0.13813
0.13215
0.12464
0.11942
0.11878
0.12272
0.13047
0.13974
0.1452
0.1476
0.14696
0.14326
0.14032
0.13814
0.13826
0.14142
0.14687
0.15232
0.15701
0.1594
0.15951
0.15733
0.15514
0.15372
0.15611
0.16079
0.16623
0.17168
0.17712
0.18027
0.1796
0.17665
0.17216
0.16997
0.17006
0.1755
0.18398
0.19323
0.20171
0.20638
0.20723
0.20579
0.20283
0.20291
0.20452
0.20918
0.2169
0.22537
0.23155
0.23545
0.23324
0.22874
0.22348
0.22126
0.2221
0.22904
0.2398
0.25055
0.25902
0.26519
0.26755
0.26838
0.26921
0.27157
0.27774
0.28696
0.29847
0.30997
0.31919
0.32612
0.33
0.33082
0.32935
0.32941
0.33175
0.33868
0.34865
0.36015
0.37012
0.37704
0.38167
0.38324
0.38177
0.38258
0.38491
0.3903
0.39797
0.40641
0.41332
0.41642
0.41646
0.41345
0.40891
0.40437
0.40212
0.40139
0.40067
0.39841
0.39463
0.3878
0.37715
0.36345
0.35051
0.33833
0.32844
0.32084
0.31324
0.30563
0.29498
0.28203
0.26527
0.24774
0.22793
0.21192
0.19897
0.1906
0.18528
0.18148
0.17691
0.17082
0.16321
0.15483
0.14568
0.13807
0.13273
0.13122
0.13199
0.13352
0.13429
0.13353
0.12743
0.1198
0.11218
0.10684
0.10379
0.10378
0.1076
0.11141
0.11293
0.1114
0.10758
0.10071
0.093833
0.089246
0.088473
0.091515
0.096843
0.10141
0.10445
0.1052
0.10365
0.099061
0.09294
0.089107
0.089088
0.093646
0.10049
0.1081
0.11342
0.11644
0.11566
0.11182
0.10721
0.10337
0.10258
0.10331
0.10862
0.11546
0.12
0.12378
0.12527
0.12219
0.11834
0.11601
0.11674
0.11975
0.12505
0.12959
0.13336
0.13484
0.13403
0.13018
0.12555
0.12245
0.12164
0.12541
0.1307
0.13675
0.14128
0.14352
0.1427
0.13883
0.13344
0.13033
0.12951
0.13174
0.13702
0.1423
0.14377
0.14294
0.13907
0.13213
0.1252
0.12132
0.11897
0.12043
0.12494
0.13021
0.13472
0.13693
0.13381
0.1284
0.12298
0.11986
0.11902
0.12047
0.1242
0.1287
0.1332
0.13388
0.13075
0.12456
0.11761
0.11219
0.10982
0.11126
0.11727
0.12481
0.13235
0.13761
0.13752
0.13361
0.12665
0.12045
0.11731
0.11645
0.11864
0.1216
0.12379
0.12369
0.12054
0.11509
0.10965
0.10574
0.10563
0.11011
0.11687
0.12515
0.13115
0.13257
0.13017
0.12396
0.11622
0.11076
0.1076
0.10977
0.11653
0.12328
0.12774
0.12838
0.1275
0.12433
0.1204
0.11723
0.1171
0.11927
0.12449
0.1297
0.13416
0.13479
0.13161
0.12538
0.11839
0.11292
0.11126
0.11342
0.11939
0.12765
0.13285
0.13577
0.13335
0.1271
0.12163
0.11691
0.11524
0.11663
0.12259
0.12855
0.13451
0.13666
0.13499
0.1295
0.12249
0.117
0.11456
0.11441
0.11808
0.12327
0.12846
0.12983
0.12815
0.12418
0.11869
0.11548
0.11532
0.11898
0.12492
0.1301
0.13299
0.13207
0.12885
0.12411
0.11785
0.11387
0.11294
0.11506
0.11947
0.12541
0.12981
0.13117
0.13023
0.12549
0.12074
0.11522
0.11352
0.11411
0.11775
0.12291
0.12731
0.13018
0.12924
0.12372
0.11744
0.11268
0.11097
0.11384
0.11899
0.12644
0.13235
0.13522
0.13503
0.13103
0.1255
0.11997
0.11672
0.11806
0.12244
0.12988
0.13579
0.14017
0.13921
0.13596
0.13195
0.1287
0.12926
0.13288
0.14031
0.15002
0.15974
0.1664
0.16925
0.16676
0.16197
0.15719
0.15546
0.15906
0.16496
0.17238
0.1798
0.18416
0.18471
0.18297
0.18047
0.1795
0.18081
0.18669
0.19411
0.20304
0.20969
0.211
0.20544
0.19377
0.17906
0.16357
0.15038
0.14405
0.1423
0.14208
0.14185
0.13781
0.12995
0.12133
0.11195
0.10561
0.10233
0.10363
0.10721
0.11308
0.1159
0.11643
0.1139
0.10909
0.10198
0.09717
0.094642
0.095929
0.10027
0.10613
0.11275
0.11785
0.12219
0.12805
0.13849
0.15808
0.19216
0.2438
0.31069
0.38521
0.45668
0.51823
0.56375
0.59173
0.60674
0.60801
0.59784
0.57546
0.53935
0.49179
0.43279
0.36692
0.29952
0.23594
0.18075
0.13701
0.10394
0.082317
0.070611
0.067297
0.069323
0.071349
0.072611
0.071583
0.069029
0.068763
0.070022
0.075095
0.081693
0.08829
0.093362
0.094617
0.092058
0.086446
0.080833
0.077508
0.077234
0.080775
0.087366
0.095484
0.1036
0.10714
0.1061
0.10124
0.094859
0.090001
0.088195
0.090204
0.096025
0.10185
0.10767
0.1112
0.11091
0.10758
0.10272
0.099378
0.099855
0.10338
0.1092
0.1173
0.12312
0.12588
0.12635
0.12377
0.12195
0.11937
0.12061
0.12489
0.1307
0.13727
0.14155
0.14278
0.13867
0.1338
0.12892
0.1271
0.12909
0.13413
0.14222
0.14955
0.15535
0.15887
0.15933
0.15674
0.15338
0.15079
0.15354
0.1601
0.17047
0.18008
0.18817
0.19244
0.19442
0.19259
0.18922
0.18586
0.18632
0.18982
0.1979
0.20903
0.21864
0.22596
0.22869
0.22838
0.2273
0.22851
0.23354
0.24238
0.25427
0.26844
0.27881
0.28688
0.29114
0.29082
0.29126
0.29247
0.2952
0.30175
0.31058
0.32094
0.32748
0.33173
0.33141
0.32956
0.32542
0.32281
0.32248
0.32521
0.33098
0.33752
0.34177
0.3422
0.33806
0.3301
0.32062
0.31266
0.30546
0.30208
0.30251
0.30141
0.29879
0.29235
0.28134
0.26498
0.24481
0.22846
0.21362
0.20413
0.19693
0.19049
0.18176
0.17074
0.15667
0.14031
0.12395
0.10988
0.098092
0.090121
0.085966
0.082573
0.078416
0.071208
0.060947
0.047634
0.03432
0.023295
0.016085
0.01574
0.017684
0.022679
0.025385
0.025039
0.02164
0.01519
0.0079755
0.0015246
-0.0026387
-0.0037503
-0.00028437
0.0054692
0.0096974
0.012399
0.011286
0.0078827
0.0014283
-0.0027384
-0.0038534
-0.00039087
0.0068853
0.013398
0.019149
0.021847
0.019967
0.014271
0.007813
0.0021167
0.00023501
0.001405
0.0071527
0.014425
0.021697
0.024392
0.02556
0.022913
0.018741
0.014567
0.013445
0.016138
0.021118
0.026862
0.031079
0.033007
0.030357
0.025419
0.020479
0.017066
0.018229
0.020919
0.028185
0.034689
0.037378
0.037014
0.034361
0.027893
0.022189
0.018772
0.017644
0.021093
0.026068
0.033332
0.037543
0.037939
0.036047
0.03034
0.022343
0.016635
0.013978
0.015899
0.020871
0.02737
0.031579
0.032735
0.029315
0.022841
0.015606
0.0098946
0.0079984
0.008391
0.012598
0.01833
0.021774
0.022166
0.01798
0.011505
0.0050288
0.0016046
0.0012322
0.0046746
0.0096428
0.013847
0.017289
0.016915
0.014252
0.0077757
0.0012977
-0.0036535
-0.0047909
-0.0028775
0.0013258
0.0055288
0.0089677
0.0085924
0.0059289
0.0002123
-0.0055045
-0.010457
-0.01236
-0.010447
-0.0062464
-0.00051901
0.0044442
0.0071193
0.0052162
0.001025
-0.0039304
-0.0065969
-0.0069746
-0.0027744
0.0029507
0.0086766
0.012113
0.011735
0.0098306
0.004111
-0.0016077
-0.0065645
-0.0092324
-0.0088485
-0.0054127
-0.00045194
0.0037467
0.0041302
0.00069857
-0.0057841
-0.012268
-0.017988
-0.019894
-0.019511
-0.015314
-0.0080643
-0.0023417
0.0018559
0.00071241
-0.0042462
-0.011493
-0.017215
-0.019884
-0.019502
-0.015305
-0.0095832
-0.0030972
-0.00042633
-0.0023335
-0.0080557
-0.013014
-0.017973
-0.018355
-0.016447
-0.012252
-0.0080551
-0.0030956
-0.0019522
-0.0030958
-0.0065294
-0.012252
-0.016449
-0.018355
-0.016449
-0.01149
-0.0072937
-0.0046244
-0.0050062
-0.007676
-0.012636
-0.018359
-0.023317
-0.023699
-0.02103
-0.016071
-0.0088236
-0.0031014
0.00033187
-0.00081288
-0.0050096
-0.012257
-0.018743
-0.020651
-0.01798
-0.011496
-0.0027215
0.004526
0.0087225
0.009867
0.0071966
0.0022373
-0.00043308
0.00071164
0.0049084
0.011393
0.018642
0.023601
0.024746
0.022076
0.017118
0.012159
0.010253
0.012924
0.020172
0.030473
0.041538
0.051075
0.056798
0.058707
0.056801
0.054895
0.051464
0.050321
0.049941
0.05185
0.053759
0.052617
0.046897
0.037362
0.023251
0.0083762
-0.0042096
-0.013744
-0.017174
-0.018315
-0.017931
-0.018309
-0.020976
-0.025932
-0.033939
-0.042709
-0.047664
-0.049567
-0.048419
-0.04193
-0.033914
-0.028187
-0.026275
-0.028177
-0.034657
-0.043426
-0.050668
-0.05257
-0.04913
-0.038825
-0.025467
-0.0082953
0.012693
0.03902
0.074504
0.11914
0.17217
0.23055
0.28892
0.34195
0.38354
0.40987
0.42018
0.41294
0.38739
0.34658
0.2928
0.2314
0.16694
0.10553
0.048701
-0.00049836
-0.042068
-0.077534
-0.10537
-0.12787
-0.14273
-0.14844
-0.14652
-0.13697
-0.12285
-0.10872
-0.096881
-0.08962
-0.086174
-0.084252
-0.083857
-0.081172
-0.077724
-0.069699
-0.063199
-0.055935
-0.053249
-0.053615
-0.058558
-0.065027
-0.071495
-0.075675
-0.076039
-0.072588
-0.065322
-0.057293
-0.051553
-0.049627
-0.050752
-0.054929
-0.057579
-0.058704
-0.055251
-0.048745
-0.041477
-0.034207
-0.030753
-0.03035
-0.033761
-0.03946
-0.044397
-0.047044
-0.045113
-0.038604
-0.030569
-0.024822
-0.022891
-0.022485
-0.027418
-0.031588
-0.035759
-0.036114
-0.033416
-0.026142
-0.018103
-0.010827
-0.0066023
-0.0054292
-0.0073077
-0.010712
-0.01259
-0.012178
-0.0087139
-0.0021985
0.0066072
0.01236
0.016589
0.01624
0.012839
0.0086757
0.0052758
0.0056912
0.0083961
0.015679
0.023725
0.031771
0.037529
0.040235
0.040654
0.039546
0.039202
0.041911
0.049198
0.05801
0.069112
0.077162
0.084451
0.087924
0.087583
0.084955
0.083852
0.086564
0.092329
0.10191
0.11302
0.12336
0.13141
0.13566
0.13685
0.13575
0.13389
0.13431
0.13856
0.14433
0.15239
0.15816
0.16088
0.16054
0.15563
0.1492
0.14277
0.13862
0.13753
0.13949
0.14297
0.14494
0.14308
0.13741
0.12641
0.11235
0.097526
0.084231
0.074751
0.06756
0.061133
0.055469
0.045991
0.034988
0.02246
0.0076424
-0.0071742
-0.018938
-0.027651
-0.034073
-0.038206
-0.043101
-0.051812
-0.06281
-0.076859
-0.092434
-0.10801
-0.11824
-0.12466
-0.1265
-0.12605
-0.12636
-0.12896
-0.13233
-0.13874
-0.14744
-0.15538
-0.16103
-0.16287
-0.16165
-0.15738
-0.15463
-0.15494
-0.1583
-0.16394
-0.17112
-0.17447
-0.17554
-0.17279
-0.16775
-0.16119
-0.15691
-0.15416
-0.15598
-0.16163
-0.1665
-0.17061
-0.16939
-0.16511
-0.15548
-0.14586
-0.13777
-0.13577
-0.13759
-0.14323
-0.15038
-0.15678
-0.16089
-0.16041
-0.15689
-0.15108
-0.14526
-0.14174
-0.14203
-0.14536
-0.15023
-0.1528
-0.15309
-0.15032
-0.14603
-0.14021
-0.13515
-0.13467
-0.13648
-0.14057
-0.14543
-0.14876
-0.14904
-0.14627
-0.14121
-0.13538
-0.13032
-0.1283
-0.13163
-0.13801
-0.14667
-0.15458
-0.15866
-0.15817
-0.15463
-0.1488
-0.14372
-0.14247
-0.14426
-0.14835
-0.15395
-0.15803
-0.15906
-0.1578
-0.15501
-0.15146
-0.1502
-0.15046
-0.15301
-0.15861
-0.16498
-0.17058
-0.17236
-0.17262
-0.16754
-0.16169
-0.15813
-0.15686
-0.15864
-0.165
-0.17212
-0.17848
-0.18102
-0.17974
-0.17541
-0.16803
-0.16142
-0.15785
-0.15886
-0.16292
-0.16927
-0.17562
-0.17968
-0.18145
-0.17864
-0.17431
-0.17073
-0.16792
-0.16892
-0.17222
-0.17779
-0.18185
-0.18437
-0.18156
-0.17722
-0.17211
-0.167
-0.16571
-0.16747
-0.17228
-0.17938
-0.18419
-0.18594
-0.18541
-0.18029
-0.17442
-0.17007
-0.16877
-0.17128
-0.17761
-0.1847
-0.19026
-0.19354
-0.19147
-0.18635
-0.17818
-0.17229
-0.16793
-0.16815
-0.17218
-0.17926
-0.18405
-0.18656
-0.18524
-0.18088
-0.17575
-0.17138
-0.16931
-0.17104
-0.17506
-0.18061
-0.1854
-0.18713
-0.18581
-0.18067
-0.17401
-0.16964
-0.16831
-0.1708
-0.17634
-0.18265
-0.18742
-0.18991
-0.18934
-0.1842
-0.17753
-0.17086
-0.168
-0.16972
-0.17602
-0.18231
-0.18708
-0.1888
-0.18593
-0.18002
-0.17258
-0.16666
-0.16456
-0.16627
-0.17027
-0.17732
-0.18208
-0.18531
-0.1832
-0.1788
-0.17212
-0.16619
-0.16332
-0.16349
-0.16748
-0.17376
-0.17928
-0.1825
-0.18267
-0.17827
-0.17234
-0.1664
-0.16352
-0.16445
-0.1692
-0.17547
-0.18097
-0.18419
-0.18359
-0.17841
-0.17171
-0.16424
-0.15753
-0.1554
-0.15556
-0.15725
-0.15893
-0.15832
-0.15466
-0.14948
-0.14429
-0.13987
-0.13773
-0.13864
-0.14184
-0.14581
-0.14977
-0.14916
-0.14549
-0.13724
-0.12823
-0.11922
-0.11478
-0.11188
-0.11278
-0.11597
-0.1184
-0.11625
-0.11105
-0.10279
-0.093772
-0.086278
-0.082598
-0.081968
-0.085915
-0.092913
-0.099911
-0.10538
-0.11009
-0.1125
-0.11339
-0.11657
-0.12127
-0.12979
-0.14136
-0.15369
-0.16373
-0.17148
-0.17541
-0.17782
-0.17718
-0.17729
-0.17817
-0.18134
-0.18527
-0.19072
-0.19541
-0.19781
-0.1964
-0.19193
-0.18746
-0.18452
-0.18539
-0.18931
-0.19399
-0.19944
-0.20031
-0.19507
-0.18296
-0.16246
-0.13357
-0.096287
-0.04832
0.0088026
0.071267
0.13297
0.18933
0.23731
0.2746
0.30197
0.31866
0.32086
0.30475
0.2711
0.21989
0.15724
0.089258
0.022797
-0.038321
-0.088758
-0.12928
-0.16064
-0.18589
-0.20581
-0.22191
-0.23267
-0.23732
-0.23587
-0.2306
-0.22076
-0.20633
-0.19496
-0.18816
-0.18671
-0.19135
-0.19829
-0.2037
-0.20681
-0.20688
-0.20236
-0.1948
-0.18647
-0.18119
-0.1782
-0.18054
-0.18518
-0.18982
-0.19292
-0.19374
-0.18998
-0.18317
-0.17559
-0.16954
-0.16807
-0.17117
-0.17656
-0.18118
-0.18275
-0.18128
-0.17674
-0.17068
-0.1631
-0.15856
-0.15784
-0.15941
-0.16402
-0.16711
-0.16639
-0.16185
-0.15425
-0.1459
-0.1383
-0.13528
-0.13608
-0.14069
-0.14606
-0.14914
-0.14917
-0.14462
-0.13701
-0.12712
-0.11875
-0.11343
-0.1104
-0.11119
-0.11426
-0.1181
-0.11888
-0.11584
-0.109
-0.10062
-0.091478
-0.086914
-0.085401
-0.087703
-0.092292
-0.094591
-0.0946
-0.091557
-0.084698
-0.077838
-0.069451
-0.063352
-0.060304
-0.059544
-0.060308
-0.060309
-0.057258
-0.052679
-0.045811
-0.035889
-0.02673
-0.018333
-0.012223
-0.0076397
-0.0061061
-0.0022825
0.0030671
0.012234
0.024452
0.036671
0.046603
0.051958
0.053498
0.050463
0.046665
0.043631
0.045176
0.049011
0.055898
0.065076
0.071202
0.074277
0.074302
0.069749
0.062147
0.05607
0.051522
0.049262
0.050055
0.051612
0.052408
0.049389
0.042556
0.03191
0.018975
0.0060423
-0.0053639
-0.01448
-0.021308
-0.026607
-0.031907
-0.041019
-0.05242
-0.066108
-0.082848
-0.097297
-0.10869
-0.11933
-0.12691
-0.1322
-0.13825
-0.14659
-0.15569
-0.16785
-0.18153
-0.19291
-0.20049
-0.20424
-0.20419
-0.20108
-0.19873
-0.19943
-0.20242
-0.20998
-0.21908
-0.2274
-0.23344
-0.23643
-0.2356
-0.23324
-0.23012
-0.227
-0.22845
-0.23372
-0.24051
-0.24654
-0.24952
-0.24792
-0.24326
-0.23479
-0.22785
-0.22471
-0.22463
-0.22837
-0.23363
-0.23888
-0.24185
-0.24177
-0.2371
-0.23015
-0.22396
-0.22005
-0.21996
-0.22216
-0.22589
-0.22961
-0.23028
-0.2279
-0.2217
-0.21473
-0.20777
-0.2031
-0.20223
-0.20519
-0.21043
-0.21643
-0.21861
-0.21775
-0.2123
-0.20533
-0.19912
-0.19596
-0.19586
-0.1988
-0.20403
-0.20773
-0.20915
-0.20598
-0.20129
-0.19584
-0.19115
-0.18951
-0.18863
-0.19156
-0.19526
-0.19819
-0.19959
-0.19718
-0.19325
-0.18855
-0.18537
-0.18448
-0.18588
-0.19033
-0.19478
-0.20076
-0.20368
-0.20279
-0.19961
-0.19337
-0.1879
-0.18471
-0.18458
-0.18826
-0.19346
-0.1979
-0.19929
-0.19839
-0.19596
-0.19201
-0.19034
-0.19096
-0.19311
-0.19907
-0.20579
-0.20946
-0.21084
-0.20916
-0.20215
-0.19361
-0.18583
-0.18262
-0.18324
-0.18766
-0.1959
-0.20261
-0.20627
-0.20688
-0.20367
-0.19893
-0.19496
-0.19251
-0.19235
-0.19524
-0.1989
-0.20331
-0.2062
-0.20603
-0.20282
-0.19884
-0.19409
-0.19164
-0.1907
-0.19435
-0.19876
-0.20316
-0.20528
-0.20282
-0.19654
-0.18874
-0.1817
-0.17771
-0.17829
-0.18269
-0.19014
-0.1953
-0.19817
-0.1957
-0.19095
-0.1839
-0.17837
-0.1759
-0.178
-0.18316
-0.18984
-0.19575
-0.19862
-0.19843
-0.19442
-0.18813
-0.1826
-0.17859
-0.17763
-0.18049
-0.18488
-0.18926
-0.19059
-0.18963
-0.18485
-0.17779
-0.17225
-0.16899
-0.16879
-0.17241
-0.17754
-0.18192
-0.18629
-0.18685
-0.18512
-0.18033
-0.17784
-0.17687
-0.17818
-0.18026
-0.18539
-0.18747
-0.18726
-0.18476
-0.17768
-0.1706
-0.16428
-0.16177
-0.16232
-0.16668
-0.1718
-0.17693
-0.17976
-0.17954
-0.17626
-0.17147
-0.16743
-0.16568
-0.16698
-0.16981
-0.17492
-0.17927
-0.17981
-0.17653
-0.17096
-0.1631
-0.15677
-0.15349
-0.15402
-0.15836
-0.16424
-0.16934
-0.1714
-0.16887
-0.16482
-0.15925
-0.15367
-0.15038
-0.1509
-0.15448
-0.15958
-0.16392
-0.16673
-0.16648
-0.16243
-0.15608
-0.14821
-0.14338
-0.14085
-0.14137
-0.14493
-0.1485
-0.1513
-0.15029
-0.14546
-0.13987
-0.13504
-0.13021
-0.1292
-0.13124
-0.13556
-0.13988
-0.14115
-0.13784
-0.13301
-0.12436
-0.11571
-0.10859
-0.10375
-0.10196
-0.10018
-0.098389
-0.094312
-0.087947
-0.080053
-0.072161
-0.066555
-0.063239
-0.06221
-0.064996
-0.070068
-0.073616
-0.074873
-0.072315
-0.066704
-0.059568
-0.05243
-0.049871
-0.051886
-0.057718
-0.068125
-0.080058
-0.088938
-0.094767
-0.09678
-0.098792
-0.099277
-0.10434
-0.11017
-0.12133
-0.13326
-0.14366
-0.15024
-0.15225
-0.14815
-0.14253
-0.13614
-0.13281
-0.13329
-0.13834
-0.14492
-0.1515
-0.15656
-0.15856
-0.15827
-0.15417
-0.1493
-0.14291
-0.13651
-0.12936
-0.12067
-0.1036
-0.074312
-0.029767
0.032324
0.10662
0.18245
0.25217
0.30816
0.34508
0.36827
0.37696
0.37497
0.36306
0.33894
0.30186
0.25333
0.19565
0.12881
0.060448
-0.0048623
-0.060254
-0.10267
-0.13289
-0.15089
-0.16051
-0.16249
-0.16218
-0.16035
-0.15928
-0.15897
-0.1579
-0.15454
-0.14737
-0.13943
-0.13072
-0.12431
-0.12095
-0.1214
-0.12643
-0.13298
-0.1403
-0.14303
-0.14196
-0.13706
-0.12912
-0.12041
-0.11323
-0.1091
-0.11031
-0.11304
-0.1173
-0.11774
-0.11437
-0.10719
-0.099238
-0.091288
-0.087152
-0.086068
-0.086509
-0.090764
-0.094257
-0.094696
-0.091321
-0.084131
-0.076939
-0.071274
-0.06866
-0.06986
-0.074874
-0.079888
-0.083375
-0.083047
-0.077379
-0.068659
-0.058411
-0.048927
-0.043256
-0.042164
-0.043359
-0.049895
-0.054141
-0.056861
-0.055003
-0.050856
-0.044419
-0.03722
-0.030019
-0.025871
-0.026299
-0.029016
-0.032495
-0.03216
-0.027246
-0.017754
-0.0059734
0.0042818
0.010723
0.01335
0.012163
0.0094493
0.0082623
0.010128
0.015809
0.023778
0.033273
0.042769
0.049214
0.054134
0.055239
0.054818
0.054397
0.057029
0.06195
0.071448
0.083237
0.095025
0.10529
0.11097
0.11284
0.11319
0.11354
0.11541
0.1211
0.1306
0.14086
0.15189
0.15987
0.16403
0.16514
0.16397
0.16203
0.16237
0.16578
0.17147
0.17868
0.18514
0.1893
0.18813
0.1839
0.17586
0.16782
0.16054
0.15632
0.15514
0.15397
0.15204
0.14552
0.13367
0.11876
0.10157
0.084378
0.069474
0.059147
0.052636
0.047651
0.044193
0.036919
0.025831
0.010928
-0.0047361
-0.020401
-0.031488
-0.040286
-0.045269
-0.0472
-0.049131
-0.05335
-0.061385
-0.070944
-0.082792
-0.092351
-0.10115
-0.1046
-0.10653
-0.10465
-0.10123
-0.10011
-0.10128
-0.10549
-0.11124
-0.11698
-0.12043
-0.11931
-0.11589
-0.11095
-0.10678
-0.10489
-0.10758
-0.1118
-0.11677
-0.12099
-0.12139
-0.1195
-0.11456
-0.10657
-0.098573
-0.092868
-0.090978
-0.092903
-0.099406
-0.10591
-0.11012
-0.10976
-0.10405
-0.093769
-0.084249
-0.07778
-0.075889
-0.078576
-0.084314
-0.090052
-0.091213
-0.087795
-0.080563
-0.069516
-0.059994
-0.053525
-0.05087
-0.052793
-0.058529
-0.064267
-0.06924
-0.0704
-0.068507
-0.062037
-0.056329
-0.052149
-0.051019
-0.052939
-0.05715
-0.061361
-0.06252
-0.060626
-0.054155
-0.045396
-0.038161
-0.033216
-0.031323
-0.03477
-0.039743
-0.045479
-0.048925
-0.04932
-0.045901
-0.040192
-0.036009
-0.034879
-0.037563
-0.043299
-0.05056
-0.055532
-0.055927
-0.05327
-0.046035
-0.037275
-0.029278
-0.024332
-0.023201
-0.024359
-0.029331
-0.033541
-0.036224
-0.037382
-0.035488
-0.031305
-0.027885
-0.027517
-0.028675
-0.032885
-0.03862
-0.045119
-0.048566
-0.048961
-0.046305
-0.041359
-0.036413
-0.032995
-0.032627
-0.03531
-0.040284
-0.043731
-0.046415
-0.044522
-0.041103
-0.034632
-0.030451
-0.027032
-0.027428
-0.031638
-0.037375
-0.044637
-0.047322
-0.046192
-0.042774
-0.036304
-0.03136
-0.028705
-0.029864
-0.033313
-0.03905
-0.042499
-0.04137
-0.037953
-0.031484
-0.023489
-0.016257
-0.013603
-0.012475
-0.015162
-0.021664
-0.028165
-0.032378
-0.032777
-0.02936
-0.023655
-0.016425
-0.013009
-0.011882
-0.01457
-0.019546
-0.024524
-0.027213
-0.02685
-0.024198
-0.018494
-0.012028
-0.0078506
-0.0067252
-0.0086521
-0.013631
-0.018609
-0.0213
-0.020938
-0.015236
-0.0072456
0.00074432
0.0056831
0.0068067
0.004115
-0.00086476
-0.0066088
-0.010064
-0.011229
-0.0093449
-0.0044077
-0.00023375
0.003177
0.0020096
-0.001447
-0.0071929
-0.011412
-0.01258
-0.0091708
-0.0027105
0.0068015
0.014788
0.01896
0.020079
0.01662
0.010109
0.0051249
0.00090224
0.0020204
0.0061903
0.012648
0.019106
0.021749
0.02134
0.016353
0.0098403
0.0056154
0.0029162
0.0025058
0.0059101
0.011603
0.016532
0.019172
0.020286
0.017585
0.011833
0.0076053
0.0056664
0.0083051
0.015522
0.025026
0.032241
0.037167
0.038278
0.035574
0.030582
0.024825
0.021357
0.021704
0.026629
0.033841
0.04029
0.045977
0.047847
0.046667
0.043196
0.040488
0.040069
0.042702
0.049911
0.05941
0.06967
0.076115
0.079509
0.07985
0.077902
0.075955
0.076295
0.079686
0.087656
0.099439
0.1097
0.1169
0.12029
0.11834
0.11486
0.10986
0.10638
0.10443
0.10476
0.1051
0.10391
0.09814
0.089319
0.076683
0.064047
0.05141
0.042588
0.038342
0.037911
0.041295
0.044678
0.045772
0.04305
0.038039
0.030739
0.024964
0.022242
0.02257
0.027475
0.034669
0.040336
0.042952
0.039463
0.034449
0.027144
0.021366
0.02169
0.028117
0.042173
0.062333
0.087833
0.11943
0.16096
0.21087
0.26688
0.32671
0.38578
0.44179
0.48712
0.52254
0.54193
0.54454
0.52731
0.49024
0.43715
0.37185
0.30426
0.23897
0.1813
0.13049
0.09037
0.056351
0.027671
0.0043316
-0.01443
-0.029379
-0.036699
-0.035626
-0.026924
-0.012882
0.0011576
0.014435
0.023135
0.028019
0.031377
0.032445
0.033513
0.036869
0.042513
0.048921
0.054563
0.058681
0.059745
0.058521
0.055769
0.053018
0.053318
0.056668
0.063071
0.070235
0.078162
0.082273
0.083332
0.08134
0.078583
0.074299
0.073067
0.074124
0.079758
0.089205
0.098652
0.10657
0.10992
0.10868
0.10515
0.099339
0.095813
0.094575
0.097914
0.1043
0.11222
0.11861
0.12194
0.12223
0.1187
0.11593
0.11392
0.11344
0.1183
0.12468
0.13336
0.13974
0.14536
0.1464
0.14515
0.14314
0.14265
0.14522
0.14778
0.15416
0.16054
0.16462
0.16566
0.16517
0.16391
0.16266
0.16445
0.17006
0.17949
0.18891
0.19833
0.2047
0.20802
0.20905
0.20779
0.20653
0.20755
0.21392
0.22181
0.23276
0.24293
0.25082
0.2549
0.25592
0.25465
0.25491
0.25746
0.26305
0.27246
0.28416
0.29586
0.30374
0.30857
0.30883
0.30679
0.30399
0.30424
0.3083
0.31465
0.32253
0.33117
0.33752
0.33929
0.33725
0.33215
0.32629
0.32196
0.32144
0.32397
0.32802
0.33208
0.33156
0.32569
0.31601
0.30251
0.28902
0.27781
0.26965
0.26378
0.25944
0.2551
0.24617
0.2342
0.21841
0.20109
0.18301
0.16874
0.15752
0.15088
0.14806
0.14676
0.14393
0.13882
0.12836
0.11637
0.10363
0.093167
0.086521
0.082163
0.082382
0.0826
0.081291
0.07693
0.071043
0.062866
0.055451
0.051087
0.049774
0.050749
0.054012
0.057274
0.057484
0.056167
0.051035
0.045902
0.04153
0.039448
0.041178
0.045198
0.052268
0.0601
0.064117
0.064318
0.061467
0.056325
0.05271
0.052145
0.055395
0.062457
0.071808
0.080396
0.087456
0.089938
0.088604
0.083455
0.077543
0.073155
0.072581
0.075059
0.08135
0.088403
0.094693
0.097929
0.097351
0.094483
0.089325
0.085692
0.085873
0.089106
0.094626
0.099382
0.10261
0.10279
0.09915
0.093222
0.087293
0.084415
0.085351
0.0901
0.096376
0.10265
0.10663
0.1068
0.10316
0.097982
0.092807
0.090684
0.090848
0.094064
0.098042
0.10202
0.10447
0.10463
0.10097
0.094265
0.08832
0.084662
0.082529
0.084973
0.088179
0.091384
0.092299
0.090925
0.084973
0.077494
0.070776
0.067872
0.06802
0.075033
0.082045
0.091346
0.09683
0.097736
0.094826
0.088865
0.082901
0.079227
0.080128
0.083318
0.089559
0.094272
0.099748
0.099882
0.09849
0.094808
0.088836
0.083626
0.080705
0.080834
0.083251
0.08643
0.087319
0.087445
0.084518
0.08159
0.077898
0.075731
0.075089
0.077499
0.082196
0.088418
0.093876
0.095519
0.093346
0.088119
0.08213
0.079191
0.08083
0.085518
0.092495
0.097182
0.10034
0.098161
0.093691
0.086167
0.080169
0.076458
0.076561
0.080478
0.088209
0.095176
0.09909
0.099951
0.095472
0.087939
0.080406
0.07516
0.072966
0.074584
0.078491
0.08316
0.087065
0.08868
0.088006
0.083517
0.079788
0.078348
0.079959
0.085384
0.093859
0.10157
0.10547
0.10555
0.10257
0.095787
0.086709
0.079919
0.074654
0.076254
0.081669
0.087845
0.093258
0.095618
0.093399
0.088127
0.08133
0.077582
0.076122
0.078477
0.083882
0.090049
0.093164
0.093225
0.089471
0.081902
0.075095
0.070575
0.070632
0.074503
0.081425
0.088346
0.092976
0.094555
0.09308
0.087791
0.084788
0.084074
0.084885
0.089508
0.096421
0.10333
0.10795
0.10876
0.10575
0.098925
0.092862
0.089849
0.091413
0.098318
0.10827
0.11823
0.12513
0.12821
0.12672
0.12294
0.11839
0.11689
0.11768
0.12305
0.13071
0.13913
0.14602
0.14986
0.14988
0.14685
0.14458
0.14461
0.14844
0.15532
0.16526
0.1752
0.18208
0.18438
0.18211
0.17678
0.16916
0.16307
0.15926
0.15851
0.15775
0.157
0.15319
0.14709
0.13794
0.12726
0.11506
0.1059
0.10056
0.099801
0.10209
0.1059
0.10742
0.10589
0.10055
0.090622
0.08146
0.075349
0.073814
0.076856
0.082185
0.088277
0.092078
0.090538
0.085184
0.076776
0.069892
0.066823
0.071382
0.084333
0.10339
0.13007
0.16209
0.2025
0.25207
0.3085
0.36875
0.42823
0.48237
0.52659
0.5586
0.57994
0.58524
0.573
0.54245
0.49512
0.43633
0.37069
0.30503
0.24549
0.19357
0.15157
0.1149
0.08587
0.06065
0.040006
0.02394
0.01779
0.019269
0.028376
0.04206
0.056506
0.067899
0.073952
0.07695
0.073846
0.070739
0.070684
0.072916
0.078199
0.084245
0.090288
0.094043
0.093982
0.090105
0.083939
0.08006
0.077706
0.079166
0.083678
0.091239
0.0988
0.10407
0.10782
0.10774
0.10462
0.10073
0.099895
0.10287
0.10814
0.11492
0.12248
0.12545
0.12537
0.12224
0.11605
0.1091
0.10597
0.10665
0.11038
0.11639
0.12393
0.12995
0.13215
0.1313
0.12892
0.12577
0.12415
0.12635
0.13007
0.1376
0.14514
0.15114
0.15257
0.15094
0.14703
0.14235
0.13996
0.14138
0.14662
0.15414
0.16319
0.16919
0.1729
0.17279
0.17115
0.16875
0.1694
0.17311
0.17986
0.19195
0.20328
0.21385
0.2206
0.22277
0.22112
0.21948
0.22012
0.22305
0.22827
0.23654
0.24633
0.25308
0.25676
0.25816
0.25498
0.25409
0.25396
0.25917
0.2682
0.27875
0.29158
0.30137
0.3081
0.31025
0.30783
0.30387
0.30221
0.3036
0.30803
0.31476
0.32148
0.32439
0.32501
0.32181
0.31709
0.31084
0.30612
0.30444
0.30506
0.30719
0.30781
0.30613
0.30064
0.29057
0.27744
0.26126
0.2489
0.23883
0.23256
0.22783
0.22385
0.21759
0.20827
0.1959
0.18048
0.16429
0.14963
0.13803
0.13023
0.12701
0.12531
0.12133
0.11353
0.10192
0.087249
0.073344
0.062489
0.055449
0.052221
0.052045
0.053394
0.05398
0.050749
0.044467
0.036656
0.02732
0.020272
0.0178
0.01838
0.022009
0.025639
0.026979
0.026792
0.022026
0.01726
0.010966
0.0084869
0.0090587
0.012682
0.01783
0.022976
0.026596
0.027927
0.025442
0.02143
0.016655
0.013404
0.012442
0.015293
0.020432
0.026334
0.031471
0.03432
0.034878
0.031621
0.028364
0.027394
0.028712
0.032318
0.038213
0.044869
0.049999
0.052838
0.051864
0.047835
0.043043
0.040539
0.041086
0.044685
0.051334
0.057983
0.063104
0.065173
0.062663
0.057102
0.049251
0.04445
0.043464
0.044765
0.04988
0.055758
0.060109
0.06217
0.059654
0.054846
0.048513
0.043705
0.041948
0.044767
0.050637
0.056508
0.061613
0.062141
0.059616
0.054039
0.046172
0.042119
0.039591
0.041641
0.045977
0.051077
0.05465
0.05517
0.051874
0.046289
0.039178
0.033591
0.031819
0.033098
0.036665
0.040994
0.043795
0.042019
0.038717
0.033124
0.026769
0.023464
0.023973
0.027532
0.034144
0.040754
0.046601
0.048633
0.046086
0.040486
0.03336
0.027759
0.025209
0.027236
0.031551
0.038917
0.04552
0.047545
0.04499
0.039384
0.030725
0.024353
0.021796
0.023054
0.026599
0.030907
0.033687
0.033416
0.029329
0.022952
0.014287
0.0086715
0.0061086
0.0081209
0.014712
0.022827
0.029416
0.032189
0.030384
0.024764
0.017617
0.011233
0.008662
0.0083797
0.011912
0.016968
0.019736
0.020977
0.019165
0.015827
0.012489
0.010676
0.011913
0.015439
0.022016
0.027829
0.031353
0.032588
0.029244
0.023611
0.01874
0.013868
0.011284
0.011752
0.013745
0.018027
0.020782
0.020484
0.017897
0.01302
0.0081427
0.0040286
0.0044909
0.0087666
0.015332
0.023421
0.028459
0.027392
0.023273
0.016102
0.0096924
0.0048083
0.0037396
0.0064833
0.012279
0.018074
0.022343
0.024322
0.023249
0.01836
0.011946
0.0062929
0.0029284
0.0041413
0.0084057
0.014957
0.019984
0.021957
0.021641
0.01751
0.011852
0.0077203
0.0074022
0.0086095
0.01363
0.019415
0.022908
0.02335
0.020741
0.016604
0.01094
0.0083285
0.0080049
0.0099698
0.014986
0.020764
0.026542
0.026979
0.024363
0.017932
0.011501
0.0065952
0.0062665
0.0074632
0.013237
0.01901
0.022494
0.025215
0.022594
0.01921
0.013537
0.010152
0.0098179
0.013298
0.019067
0.024836
0.02984
0.033319
0.035271
0.032645
0.028492
0.025102
0.024
0.026713
0.034004
0.044344
0.053159
0.058159
0.059343
0.057476
0.054081
0.053739
0.056447
0.06297
0.072544
0.08288
0.090928
0.094397
0.095577
0.093704
0.092594
0.092247
0.093426
0.098419
0.10417
0.10993
0.11263
0.10999
0.10125
0.087929
0.074608
0.061287
0.052542
0.048376
0.046497
0.045381
0.041213
0.03323
0.022957
0.011921
0.0016479
-0.0048105
-0.0066923
-0.0039975
-0.00053907
0.005208
0.0071396
0.0083069
0.0056608
-3.8617e-005
-0.0057384
-0.012201
-0.016375
-0.017498
-0.015569
-0.013641
-0.011713
-0.011311
-0.0093851
-0.0066952
0.0020984
0.019283
0.053252
0.10248
0.16849
0.24442
0.32188
0.39018
0.44398
0.48024
0.50047
0.51002
0.50737
0.49327
0.46543
0.42539
0.37315
0.31022
0.24271
0.17291
0.1077
0.05392
0.012352
-0.016247
-0.033401
-0.042165
-0.044061
-0.044432
-0.044803
-0.045938
-0.04631
-0.044393
-0.040187
-0.032931
-0.022623
-0.012314
-0.0058215
-0.0023802
-0.0050432
-0.013046
-0.022577
-0.030581
-0.034771
-0.035909
-0.030943
-0.025979
-0.021777
-0.019101
-0.019478
-0.022907
-0.026336
-0.029002
-0.028616
-0.024416
-0.019453
-0.012965
-0.0087651
-0.0068547
-0.0072334
-0.011427
-0.015622
-0.019053
-0.020958
-0.019049
-0.011799
-0.0037875
0.0034611
0.0068955
0.0065147
0.0030817
-0.0011135
-0.0037838
-0.0026393
0.0023189
0.011856
0.021392
0.028639
0.032834
0.032452
0.026728
0.019479
0.012992
0.011846
0.012225
0.019472
0.02748
0.036251
0.040445
0.041587
0.038914
0.034714
0.032804
0.034708
0.041953
0.04996
0.05873
0.065212
0.067877
0.065204
0.062529
0.059092
0.057943
0.060609
0.066326
0.075859
0.087679
0.097211
0.10293
0.10636
0.10521
0.10482
0.10596
0.11015
0.11739
0.12692
0.13645
0.14522
0.15094
0.15284
0.15169
0.15054
0.15168
0.15663
0.1654
0.17722
0.1898
0.19856
0.20275
0.2016
0.19664
0.19091
0.18594
0.18479
0.18593
0.19088
0.19812
0.20384
0.2065
0.20611
0.20115
0.19237
0.18359
0.17709
0.17213
0.16945
0.16754
0.16333
0.15379
0.14272
0.12707
0.11066
0.094251
0.080892
0.070584
0.062567
0.055312
0.048057
0.036987
0.023629
0.0087442
-0.0053773
-0.017973
-0.025227
-0.030194
-0.031345
-0.033259
-0.036698
-0.043954
-0.053497
-0.065329
-0.078687
-0.089756
-0.097011
-0.098925
-0.097787
-0.095123
-0.093984
-0.096661
-0.10468
-0.11422
-0.12376
-0.13102
-0.13293
-0.13027
-0.12379
-0.11654
-0.11006
-0.10893
-0.11008
-0.11504
-0.12077
-0.12649
-0.12993
-0.12956
-0.12536
-0.12117
-0.11698
-0.11584
-0.11852
-0.12272
-0.12844
-0.13112
-0.13074
-0.12731
-0.12007
-0.11358
-0.1071
-0.10367
-0.10329
-0.1052
-0.10788
-0.10979
-0.11093
-0.10903
-0.10331
-0.096825
-0.091868
-0.089199
-0.091108
-0.096068
-0.10255
-0.10675
-0.10713
-0.10294
-0.096454
-0.089206
-0.083485
-0.080051
-0.081196
-0.084629
-0.09035
-0.094545
-0.097978
-0.099121
-0.095686
-0.090725
-0.08729
-0.085381
-0.087286
-0.092242
-0.097962
-0.10292
-0.10482
-0.10291
-0.097186
-0.090698
-0.088023
-0.087637
-0.091829
-0.099072
-0.10708
-0.1128
-0.11622
-0.1166
-0.11392
-0.11048
-0.10628
-0.1036
-0.10398
-0.10817
-0.11312
-0.11731
-0.11921
-0.11882
-0.11538
-0.10965
-0.10468
-0.10276
-0.10313
-0.10732
-0.11303
-0.11798
-0.12064
-0.11872
-0.11528
-0.11107
-0.10762
-0.10647
-0.10989
-0.1156
-0.12207
-0.12625
-0.12662
-0.12393
-0.1182
-0.11094
-0.10749
-0.10785
-0.1128
-0.12003
-0.1265
-0.1322
-0.13333
-0.13064
-0.12567
-0.12145
-0.11953
-0.11836
-0.12178
-0.12595
-0.13089
-0.13431
-0.13543
-0.13427
-0.13005
-0.12583
-0.12238
-0.12274
-0.12538
-0.13032
-0.13602
-0.14019
-0.14207
-0.13938
-0.13516
-0.12865
-0.1229
-0.12173
-0.12437
-0.12931
-0.13576
-0.14146
-0.14334
-0.14217
-0.13794
-0.13295
-0.12873
-0.12603
-0.12714
-0.13131
-0.13547
-0.13811
-0.13922
-0.13805
-0.13458
-0.12959
-0.12536
-0.12342
-0.123
-0.12869
-0.1359
-0.14311
-0.14651
-0.14533
-0.14186
-0.13686
-0.13415
-0.13297
-0.1356
-0.14128
-0.14849
-0.15417
-0.15451
-0.15104
-0.14527
-0.13722
-0.12993
-0.12722
-0.12984
-0.13705
-0.14578
-0.15145
-0.15332
-0.1506
-0.14407
-0.13601
-0.12948
-0.126
-0.12633
-0.13124
-0.1392
-0.1464
-0.15131
-0.15316
-0.15044
-0.14391
-0.13737
-0.13388
-0.13345
-0.13683
-0.14173
-0.14435
-0.1462
-0.14423
-0.13922
-0.13496
-0.13147
-0.13103
-0.13441
-0.14007
-0.14802
-0.15445
-0.15706
-0.15585
-0.15159
-0.14428
-0.13773
-0.135
-0.13455
-0.13868
-0.14205
-0.14466
-0.14421
-0.14147
-0.13721
-0.13218
-0.12792
-0.1267
-0.13007
-0.13495
-0.14289
-0.14778
-0.14885
-0.14458
-0.13574
-0.1246
-0.11499
-0.10767
-0.10645
-0.10904
-0.11316
-0.11499
-0.11453
-0.10873
-0.1014
-0.091785
-0.083694
-0.078653
-0.077428
-0.080015
-0.084891
-0.09053
-0.091591
-0.088835
-0.082264
-0.073405
-0.066833
-0.063313
-0.062843
-0.066188
-0.073346
-0.079742
-0.085373
-0.090241
-0.09282
-0.095398
-0.098738
-0.1036
-0.11152
-0.12249
-0.13574
-0.149
-0.15768
-0.16406
-0.16511
-0.16234
-0.15957
-0.1568
-0.15784
-0.1627
-0.16832
-0.17318
-0.17345
-0.17297
-0.16867
-0.1636
-0.16083
-0.1611
-0.16519
-0.17233
-0.18023
-0.18432
-0.1823
-0.17189
-0.15232
-0.12207
-0.081144
-0.030294
0.028948
0.092769
0.15659
0.21583
0.26821
0.30991
0.34093
0.35974
0.36253
0.34472
0.3086
0.2557
0.19136
0.12091
0.051224
-0.011593
-0.064492
-0.10747
-0.1413
-0.16825
-0.1891
-0.2069
-0.21936
-0.22572
-0.22368
-0.21706
-0.2051
-0.19161
-0.18042
-0.1738
-0.17328
-0.17734
-0.18445
-0.18927
-0.18951
-0.18747
-0.18084
-0.17345
-0.16759
-0.16477
-0.16577
-0.16906
-0.17311
-0.17717
-0.1774
-0.17458
-0.16795
-0.15979
-0.15239
-0.14881
-0.14904
-0.15385
-0.16018
-0.16651
-0.16826
-0.16696
-0.16261
-0.15673
-0.15085
-0.1465
-0.14519
-0.14694
-0.15098
-0.15272
-0.15218
-0.14858
-0.14193
-0.13528
-0.1294
-0.12656
-0.12678
-0.1308
-0.13559
-0.13962
-0.14136
-0.13775
-0.13033
-0.12215
-0.11397
-0.1096
-0.1098
-0.11459
-0.12089
-0.12568
-0.12664
-0.12227
-0.11408
-0.10283
-0.090826
-0.08187
-0.078253
