0.032398
0.030086
0.024672
0.018319
0.013576
0.012401
0.015374
0.021712
0.029455
0.03636
0.040338
0.040657
0.037685
0.033045
0.028883
0.027209
0.029053
0.034296
0.041465
0.048603
0.053772
0.055879
0.054876
0.052017
0.049028
0.0477
0.048995
0.053189
0.059249
0.065443
0.070134
0.072286
0.071685
0.069285
0.066323
0.064225
0.063929
0.065602
0.068411
0.071173
0.072499
0.071256
0.067551
0.062078
0.056115
0.051433
0.049409
0.050346
0.054068
0.059016
0.06364
0.066442
0.066555
0.064301
0.060844
0.057591
0.056215
0.057373
0.061033
0.066438
0.072011
0.076404
0.078865
0.079267
0.078265
0.077006
0.076624
0.077812
0.080824
0.084872
0.08902
0.092079
0.093331
0.092733
0.090882
0.088722
0.087582
0.088145
0.090689
0.094582
0.098852
0.10232
0.104
0.10371
0.10193
0.099543
0.097826
0.097769
0.099684
0.1034
0.10795
0.11201
0.11442
0.11457
0.11273
0.10976
0.10698
0.10545
0.10596
0.10833
0.11188
0.11527
0.11737
0.11752
0.11606
0.11355
0.11134
0.1104
0.11122
0.1136
0.11672
0.11963
0.12123
0.12105
0.1192
0.1165
0.11393
0.11218
0.11211
0.11342
0.11571
0.11779
0.1186
0.11734
0.11371
0.10809
0.10154
0.095163
0.089931
0.086253
0.083917
0.08231
0.080391
0.077412
0.072938
0.06727
0.061301
0.055913
0.051846
0.049732
0.0493
0.049938
0.050748
0.050973
0.050088
0.048324
0.046136
0.044273
0.0434
0.043886
0.045613
0.047924
0.050076
0.051221
0.050969
0.049035
0.04583
0.041853
0.037981
0.034703
0.032215
0.030426
0.028736
0.026377
0.023227
0.019077
0.014519
0.010306
0.0072413
0.0056414
0.0057378
0.0068777
0.0081971
0.0089778
0.0084304
0.0065648
0.0037563
0.00097847
-0.001017
-0.0014715
-8.0683e-005
0.0026382
0.0059544
0.0090695
0.011014
0.0115
0.010591
0.0088667
0.0071013
0.0060705
0.0063478
0.0079912
0.010495
0.013174
0.015334
0.016508
0.016495
0.015799
0.015003
0.014895
0.015871
0.017837
0.020613
0.023406
0.025719
0.027057
0.0273
0.02703
0.026528
0.0264
0.027028
0.028457
0.030308
0.032197
0.033677
0.034471
0.034548
0.034352
0.0343
0.034822
0.036333
0.038863
0.042087
0.045492
0.048723
0.051042
0.052459
0.0529
0.05289
0.0527
0.053022
0.05415
0.056257
0.059052
0.062337
0.065512
0.067996
0.069393
0.0698
0.069413
0.068717
0.068214
0.0681
0.068381
0.0687
0.068624
0.067781
0.066148
0.063893
0.061508
0.059445
0.058166
0.0578
0.058211
0.058904
0.05945
0.0596
0.059259
0.058516
0.057961
0.057934
0.058799
0.060446
0.062572
0.064388
0.065092
0.064004
0.061231
0.056799
0.051628
0.046672
0.042638
0.04028
0.0397
0.040401
0.04189
0.04348
0.044877
0.04617
0.047549
0.049607
0.052636
0.056667
0.061598
0.066771
0.071659
0.076258
0.08063
0.085224
0.09096
0.098723
0.10899
0.12211
0.13737
0.15379
0.16941
0.18215
0.18976
0.19019
0.18175
0.16309
0.13361
0.093444
0.044227
-0.01095
-0.067744
-0.12125
-0.16707
-0.20206
-0.2253
-0.23752
-0.2408
-0.23748
-0.22963
-0.21823
-0.20338
-0.18449
-0.16116
-0.13357
-0.10257
-0.069902
-0.037735
-0.0083077
0.01667
0.036179
0.049994
0.058734
0.063413
0.065492
0.06596
0.0659
0.066152
0.066935
0.068728
0.071303
0.074324
0.077276
0.079556
0.080541
0.080229
0.078683
0.076668
0.074925
0.074
0.074237
0.075464
0.077259
0.079034
0.080218
0.0807
0.080498
0.0801
0.0799
0.080289
0.081467
0.083247
0.085334
0.087043
0.087982
0.087921
0.087065
0.086051
0.0856
0.086195
0.088189
0.091099
0.094329
0.096741
0.09756
0.096308
0.092909
0.08808
0.082814
0.078027
0.074276
0.071702
0.069961
0.068368
0.066434
0.063693
0.060402
0.057039
0.054299
0.052661
0.052421
0.053439
0.055243
0.057128
0.058507
0.059
0.058604
0.057711
0.056814
0.0564
0.056775
0.058041
0.059913
0.061721
0.063056
0.0634
0.062494
0.060486
0.057927
0.055506
0.053711
0.053
0.053306
0.05437
0.055303
0.0557
0.05517
0.053582
0.0516
0.04964
0.048317
0.0481
0.048783
0.050103
0.05168
0.052862
0.05352
0.0537
0.0536
0.053818
0.054839
0.05705
0.060342
0.06432
0.068692
0.072967
0.07665
0.079836
0.082811
0.086076
0.090014
0.094948
0.10059
0.10672
0.11253
0.11758
0.12135
0.1236
0.1244
0.12414
0.12323
0.12214
0.12105
0.11985
0.11838
0.1159
0.11214
0.10702
0.10078
0.094014
0.087518
0.08182
0.077236
0.073607
0.070652
0.067651
0.064141
0.059731
0.054343
0.048169
0.041914
0.03626
0.031696
0.028513
0.026614
0.025709
0.025115
0.02444
0.023066
0.02063
0.017112
0.012583
0.007259
0.0014307
-0.0048762
-0.011431
-0.018351
-0.025504
-0.03275
-0.03986
-0.04621
-0.051267
-0.054858
-0.05675
-0.0574
-0.057364
-0.0573
-0.057767
-0.058922
-0.060751
-0.062741
-0.064398
-0.065226
-0.064962
-0.06362
-0.061623
-0.059744
-0.058381
-0.058001
-0.058712
-0.060106
-0.061795
-0.06329
-0.064094
-0.0642
-0.063811
-0.063222
-0.062805
-0.062878
-0.063556
-0.064547
-0.065727
-0.06655
-0.0668
-0.06664
-0.066071
-0.0658
-0.066209
-0.067661
-0.07021
-0.073645
-0.077227
-0.080422
-0.082572
-0.083548
-0.083231
-0.081868
-0.080044
-0.078162
-0.076719
-0.076072
-0.076107
-0.076618
-0.076791
-0.075642
-0.072486
-0.066556
-0.057361
-0.045011
-0.029802
-0.012421
0.0058582
0.023472
0.038358
0.04867
0.0521
0.046605
0.030094
0.0011153
-0.040382
-0.092416
-0.15116
-0.21128
-0.2668
-0.31271
-0.34601
-0.3662
-0.3749
-0.37519
-0.37011
-0.36169
-0.35032
-0.33537
-0.31557
-0.29013
-0.25955
-0.22573
-0.19151
-0.16023
-0.13468
-0.11639
-0.10537
-0.10052
-0.099702
-0.10073
-0.10171
-0.10169
-0.1006
-0.099007
-0.097415
-0.096507
-0.0963
-0.096588
-0.097097
-0.0972
-0.09692
-0.096161
-0.095178
-0.094086
-0.092986
-0.092003
-0.090906
-0.089552
-0.087969
-0.086022
-0.083874
-0.081737
-0.079855
-0.078156
-0.076727
-0.075343
-0.073746
-0.071817
-0.069399
-0.066454
-0.063251
-0.059993
-0.057137
-0.054798
-0.053028
-0.05165
-0.050359
-0.04875
-0.046556
-0.043662
-0.040281
-0.036704
-0.033226
-0.03014
-0.027546
-0.025455
-0.023653
-0.022064
-0.020475
-0.018891
-0.0171
-0.015054
-0.01285
-0.010562
-0.0083716
-0.0065477
-0.0050553
-0.0038264
-0.0024853
-0.00084328
0.0013003
0.0037853
0.0064125
0.0088535
0.011003
0.012718
0.0141
0.015423
0.016806
0.018525
0.020624
0.023033
0.025632
0.028309
0.030872
0.032956
0.034734
0.036219
0.037713
0.039403
0.041588
0.044168
0.046953
0.049541
0.051743
0.053262
0.053983
0.054289
0.0543
0.054746
0.055885
0.058009
0.061097
0.064737
0.068611
0.07233
0.075658
0.078428
0.080761
0.0827
0.084244
0.085194
0.0855
0.084894
0.083326
0.08064
0.076974
0.072363
0.067169
0.061585
0.055921
0.050358
0.0449
0.039439
0.034067
0.028504
0.022636
0.016573
0.010215
0.0035583
-0.0031959
-0.010046
-0.016807
-0.023277
-0.029168
-0.034277
-0.038406
-0.041713
-0.044338
-0.046719
-0.049179
-0.051765
-0.054504
-0.057418
-0.0604
-0.063284
-0.066073
-0.068647
-0.071188
-0.073566
-0.075911
-0.077996
-0.079853
-0.081332
-0.082594
-0.083786
-0.084982
-0.086051
-0.086942
-0.087625
-0.0878
-0.087587
-0.086979
-0.086184
-0.085187
-0.084193
-0.0832
-0.082107
-0.080912
-0.079823
-0.078631
-0.077439
-0.07615
-0.074572
-0.072881
-0.071111
-0.06941
-0.067638
-0.065851
-0.063968
-0.061784
-0.059269
-0.056492
-0.053453
-0.050267
-0.047239
-0.044505
-0.042266
-0.040771
-0.039758
-0.039253
-0.039
-0.038785
-0.03825
-0.037315
-0.036122
-0.034704
-0.032918
-0.031017
-0.028705
-0.025915
-0.022723
-0.019138
-0.015364
-0.011688
-0.0079129
-0.0036454
0.0016958
0.0089089
0.018673
0.031386
0.047074
0.065447
0.085651
0.10597
0.12445
0.13876
0.14603
0.14359
0.12875
0.099531
0.055352
-0.0022115
-0.069282
-0.13993
-0.20747
-0.26586
-0.31091
-0.34111
-0.35781
-0.36389
-0.36296
-0.35773
-0.34957
-0.33813
-0.32204
-0.29996
-0.27148
-0.23745
-0.20044
-0.16352
-0.12991
-0.10206
-0.081312
-0.067478
-0.059279
-0.054961
-0.052749
-0.051062
-0.049185
-0.04663
-0.043677
-0.040294
-0.036829
-0.033456
-0.030149
-0.027135
-0.024586
-0.022714
-0.021762
-0.0217
-0.021941
-0.022066
-0.021227
-0.019235
-0.016468
-0.013314
-0.010702
-0.009358
-0.0094613
-0.010839
-0.012856
-0.014783
-0.015725
-0.015571
-0.014441
-0.01295
-0.011885
-0.012022
-0.013636
-0.016731
-0.020708
-0.024683
-0.027971
-0.029783
-0.030013
-0.028656
-0.026205
-0.023422
-0.020913
-0.019266
-0.0186
-0.018772
-0.019439
-0.020139
-0.0205
-0.020243
-0.019487
-0.018226
-0.016933
-0.015898
-0.015094
-0.014549
-0.014022
-0.012944
-0.011082
-0.0082181
-0.0044723
-0.00026433
0.003986
0.0077303
0.010967
0.013521
0.015905
0.018398
0.021194
0.024381
0.027661
0.03083
0.033108
0.0342
0.03371
0.031836
0.028968
0.025596
0.022499
0.020086
0.018548
0.017737
0.017324
0.016847
0.015988
0.014555
0.012576
0.010223
0.0078945
0.0060614
0.0050701
0.0051481
0.0061495
0.0078361
0.0098231
0.011802
0.013558
0.01491
0.015974
0.016734
0.017235
0.017383
0.016949
0.015603
0.013059
0.0093242
0.0046269
-0.00095446
-0.0068225
-0.012681
-0.018441
-0.023905
-0.029369
-0.035027
-0.041181
-0.048019
-0.05546
-0.06311
-0.070478
-0.077086
-0.082323
-0.086479
-0.089502
-0.09218
-0.095028
-0.098535
-0.10293
-0.10812
-0.11359
-0.11875
-0.12297
-0.1258
-0.12719
-0.1275
-0.12706
-0.12636
-0.12596
-0.12603
-0.12645
-0.12715
-0.12783
-0.1281
-0.12798
-0.12758
-0.12709
-0.1267
-0.1267
-0.12731
-0.12831
-0.1296
-0.1308
-0.13169
-0.1319
-0.13142
-0.13034
-0.12866
-0.1266
-0.1245
-0.12231
-0.12013
-0.11767
-0.11464
-0.11103
-0.10669
-0.10185
-0.09682
-0.091914
-0.0873
-0.083028
-0.07915
-0.07572
-0.072684
-0.069949
-0.067364
-0.064645
-0.06173
-0.058524
-0.055067
-0.051812
-0.049074
-0.047102
-0.045526
-0.043929
-0.041389
-0.036955
-0.02973
-0.019141
-0.0048977
0.012996
0.03395
0.057088
0.080546
0.10227
0.11973
0.13036
0.1316
0.12101
0.096689
0.058107
0.0063627
-0.054826
-0.12015
-0.18314
-0.23794
-0.28029
-0.30861
-0.32386
-0.32864
-0.32667
-0.32042
-0.31128
-0.29886
-0.28188
-0.25884
-0.22936
-0.19413
-0.15563
-0.11689
-0.081159
-0.050993
-0.02777
-0.011328
-0.00076125
0.0057129
0.0097523
0.012827
0.015808
0.019186
0.02286
0.026929
0.031196
0.035476
0.03966
0.043263
0.046183
0.048118
0.048991
0.048828
0.04816
0.047356
0.046929
0.047324
0.048537
0.050384
0.052322
0.053717
0.053928
0.05272
0.050436
0.047707
0.045296
0.043917
0.043831
0.044718
0.046216
0.047579
0.0483
0.048076
0.047147
0.045945
0.04477
0.0443
0.044507
0.045212
0.046205
0.0468
0.046603
0.04572
0.044133
0.042439
0.041327
0.041082
0.042118
0.044449
0.047676
0.051535
0.055508
0.059307
0.062822
0.066038
0.069183
0.072415
0.076046
0.080173
0.084694
0.089222
0.093203
0.096265
0.097989
0.0983
0.097497
0.095976
0.094051
0.092268
0.090828
0.089874
0.089609
0.090032
0.091049
0.092754
0.095055
0.097943
0.10103
0.1042
0.10728
0.10977
0.11167
0.11298
0.1136
0.11379
0.1138
0.1139
0.11428
0.11495
0.11591
0.11711
0.1183
0.11933
0.12016
0.12086
0.12151
0.1224
0.1236
0.12509
0.12668
0.12804
0.1287
0.1282
0.12626
0.12285
0.11808
0.11229
0.10588
0.099118
0.092347
0.085506
0.078751
0.071987
0.065139
0.058487
0.052134
0.046075
0.040512
0.035443
0.030965
0.027082
0.023595
0.020407
0.017616
0.015115
0.012909
0.01109
0.0099518
0.0094149
0.0095629
0.0103
0.011388
0.01258
0.013719
0.014519
0.014965
0.0151
0.0153
0.015745
0.016617
0.017944
0.019749
0.021566
0.023298
0.024563
0.025226
0.025386
0.025079
0.024579
0.0244
0.02462
0.025742
0.027544
0.030037
0.032819
0.035501
0.037688
0.039285
0.040285
0.040987
0.041774
0.042937
0.04471
0.047071
0.049831
0.052726
0.055153
0.057087
0.058308
0.059127
0.059922
0.060969
0.062581
0.064613
0.06711
0.069636
0.072028
0.07412
0.075861
0.077356
0.078736
0.080125
0.081515
0.082882
0.083949
0.084526
0.084468
0.083551
0.08193
0.079624
0.076628
0.073242
0.069462
0.065488
0.061514
0.057636
0.054153
0.051065
0.048566
0.046466
0.044855
0.043542
0.042635
0.042471
0.043108
0.044843
0.047528
0.051076
0.055022
0.058841
0.06242
0.065777
0.069657
0.074825
0.081808
0.091262
0.10325
0.11726
0.13264
0.14841
0.16352
0.17676
0.18704
0.19299
0.19305
0.18537
0.16814
0.13929
0.098001
0.044908
-0.016998
-0.08268
-0.14615
-0.20134
-0.2443
-0.27344
-0.28991
-0.29679
-0.29754
-0.29526
-0.29117
-0.28505
-0.27542
-0.26062
-0.23927
-0.21147
-0.17862
-0.14313
-0.10813
-0.076553
-0.050386
-0.030685
-0.017419
-0.0092941
-0.0046999
-0.0019611
0.00042329
0.0030423
0.0059277
0.0087832
0.011014
0.012229
0.012266
0.011244
0.0097344
0.0082586
0.0072769
0.0069021
0.0071007
0.0076
0.0078
0.0076018
0.0069105
0.0056249
0.0041386
0.0026436
0.0014332
0.00052697
0.0002
0.00028693
0.00057474
0.00087214
0.001
0.00073307
7.7247e-005
-0.0011417
-0.0027981
-0.0046826
-0.0065632
-0.0084107
-0.0098589
-0.0107
-0.01096
-0.010628
-0.0096939
-0.008461
-0.0072007
-0.0061668
-0.0058
-0.0061412
-0.0071852
-0.008695
-0.01037
-0.011845
-0.012825
-0.0132
-0.01289
-0.011989
-0.010594
-0.009103
-0.0075116
-0.0062179
-0.0053171
-0.004702
-0.0046
-0.0046928
-0.0048
-0.0048
-0.0046147
-0.0044177
-0.0043792
-0.0047314
-0.0057899
-0.0074486
-0.0095054
-0.01133
-0.012624
-0.012652
-0.011506
-0.0092768
-0.0062433
-0.0030641
-0.00012434
0.0025253
0.0046709
0.0065496
0.0085421
0.010856
0.013688
0.017105
0.021099
0.025377
0.029542
0.033508
0.037173
0.04065
0.044429
0.048704
0.053868
0.059922
0.066668
0.073625
0.080489
0.086772
0.092267
0.096981
0.1009
0.10403
0.10645
0.10818
0.10923
0.1097
0.10944
0.10838
0.10632
0.10333
0.099246
0.094231
0.08852
0.082216
0.075517
0.068519
0.061258
0.053984
0.046633
0.039406
0.032378
0.025639
0.019201
0.013143
0.007397
0.0021456
-0.0027111
-0.007069
-0.010836
-0.014211
-0.016992
-0.019479
-0.021472
-0.023264
-0.024859
-0.026153
-0.027357
-0.02827
-0.028778
-0.0289
-0.028632
-0.02786
-0.026804
-0.02524
-0.023493
-0.021397
-0.019309
-0.017426
-0.015785
-0.014601
-0.013699
-0.013114
-0.012554
-0.012161
-0.011778
-0.0114
-0.0113
-0.0114
-0.011746
-0.012447
-0.013356
-0.014441
-0.015332
-0.0158
-0.015685
-0.014673
-0.012772
-0.010081
-0.0069008
-0.0036217
-0.00043995
0.0022497
0.0047369
0.0071213
0.0096899
0.012653
0.016012
0.019698
0.022999
0.025467
0.026687
0.026374
0.024987
0.022932
0.020963
0.019619
0.019341
0.020038
0.021739
0.023864
0.026215
0.0283
0.030161
0.031504
0.032701
0.033684
0.034576
0.035352
0.035922
0.0362
0.0362
0.0361
0.0361
0.036201
0.036708
0.037307
0.038002
0.038598
0.0389
0.0391
0.0391
0.039296
0.039682
0.040547
0.041819
0.04341
0.0451
0.046698
0.047938
0.048834
0.049562
0.050218
0.051181
0.052421
0.054064
0.056203
0.058593
0.061078
0.063468
0.065471
0.066951
0.068113
0.068995
0.069992
0.071204
0.07292
0.075032
0.077323
0.079488
0.08126
0.082638
0.083623
0.084314
0.085311
0.086608
0.088397
0.09078
0.09336
0.09595
0.098145
0.099665
0.1004
0.10032
0.099736
0.099039
0.098627
0.0985
0.098768
0.099161
0.0996
0.099649
0.09899
0.097786
0.09619
0.0947
0.093697
0.093531
0.094224
0.095425
0.096616
0.097334
0.097368
0.096742
0.095947
0.0953
0.095524
0.096674
0.098708
0.1014
0.10428
0.10685
0.10903
0.11061
0.1117
0.1126
0.1131
0.1132
0.11282
0.11184
0.11026
0.10811
0.10572
0.10341
0.1015
0.10036
0.10006
0.1008
0.10232
0.10421
0.10598
0.10706
0.10716
0.1063
0.10524
0.10504
0.10682
0.11163
0.11997
0.13179
0.1464
0.163
0.1803
0.19703
0.21208
0.224
0.23096
0.23085
0.22114
0.19902
0.16244
0.11088
0.045812
-0.02841
-0.10562
-0.17824
-0.24
-0.28642
-0.31615
-0.33087
-0.33386
-0.32921
-0.32007
-0.30828
-0.294
-0.27642
-0.25409
-0.22658
-0.19401
-0.15791
-0.12079
-0.085574
-0.055073
-0.031149
-0.014532
-0.00479
-0.0006722
-0.00035763
-0.0019697
-0.0039319
-0.0052672
-0.0055898
-0.0047137
-0.0028954
-0.00079673
0.0013798
0.0030436
0.0039105
0.003999
0.0032869
0.0021934
0.0010998
0.00060012
0.00099268
0.0023692
0.0042447
0.0064361
0.0083452
0.0094648
0.0098
0.0095279
0.0088457
0.008314
0.0083573
0.0091296
0.010548
0.012405
0.014392
0.016281
0.017913
0.019503
0.021133
0.023273
0.026043
0.029457
0.033506
0.037885
0.042024
0.045642
0.048236
0.049755
0.0502
0.04997
0.049166
0.048372
0.04757
0.046682
0.045681
0.044489
0.043096
0.041605
0.04041
0.039801
0.040081
0.041349
0.043603
0.046281
0.048984
0.051291
0.052906
0.053855
0.05437
0.05493
0.055988
0.057704
0.060111
0.063003
0.065681
0.067812
0.068953
0.069067
0.068311
0.067216
0.066316
0.0659
0.066257
0.067265
0.068362
0.069135
0.069192
0.068448
0.06693
0.06513
0.063349
0.061875
0.060985
0.060393
0.059695
0.058601
0.056519
0.05345
0.049681
0.045703
0.042207
0.039583
0.038337
0.0381
0.038559
0.039069
0.0394
0.039232
0.038764
0.038134
0.0378
0.037953
0.03876
0.040111
0.041806
0.043497
0.044842
0.045553
0.045575
0.044929
0.0438
0.042275
0.040453
0.038347
0.03584
0.032813
0.029218
0.024921
0.020131
0.015048
0.0096891
0.0044226
-0.00074168
-0.0054082
-0.0096814
-0.01356
-0.01714
-0.020517
-0.023697
-0.026987
-0.029973
-0.032859
-0.035364
-0.037395
-0.039019
-0.040113
-0.040839
-0.0412
-0.0413
-0.0412
-0.040587
-0.039491
-0.037749
-0.03536
-0.032677
-0.030033
-0.02789
-0.026472
-0.026
-0.026381
-0.027489
-0.028903
-0.030276
-0.031227
-0.0315
-0.031065
-0.030046
-0.028544
-0.026652
-0.024561
-0.022276
-0.02009
-0.017705
-0.01542
-0.012936
-0.010455
-0.0076783
-0.004716
-0.0013403
0.00251
0.0066624
0.01131
0.016071
0.020947
0.025548
0.029689
0.033306
0.036321
0.039005
0.041629
0.044367
0.047398
0.050577
0.053813
0.056658
0.058864
0.060073
0.0605
0.060383
0.0599
0.0597
0.059808
0.060334
0.061022
0.061516
0.0617
0.061589
0.06109
0.060492
0.059694
0.058899
0.058006
0.056817
0.055333
0.053257
0.050876
0.048308
0.04562
0.043123
0.04082
0.038807
0.037113
0.035719
0.034605
0.033513
0.032422
0.031215
0.030189
0.029284
0.0288
0.028944
0.029875
0.031651
0.034381
0.037843
0.041752
0.045726
0.049447
0.052492
0.055166
0.058076
0.061827
0.067491
0.075747
0.086874
0.10085
0.11719
0.13539
0.15467
0.17404
0.19214
0.20739
0.21746
0.2193
0.20989
0.18634
0.14703
0.092513
0.026167
-0.045649
-0.11565
-0.17633
-0.22262
-0.25241
-0.26688
-0.26968
-0.26525
-0.25762
-0.24916
-0.24029
-0.22994
-0.21637
-0.19828
-0.17521
-0.14811
-0.11923
-0.090866
-0.065591
-0.044923
-0.029518
-0.01901
-0.012391
-0.0083013
-0.0057448
-0.0036586
-0.0015695
0.0010173
0.0040989
0.0079712
0.012239
0.017005
0.021678
0.026069
0.029965
0.033073
0.035574
0.03769
0.039491
0.041381
0.043343
0.045234
0.04669
0.047564
0.047657
0.04684
0.04548
0.043991
0.042799
0.042144
0.042239
0.042982
0.044
0.045195
0.046264
0.046953
0.047332
0.0474
0.0473
0.0472
0.0471
0.0471
0.0471
0.0472
0.0474
0.047704
0.048302
0.049196
0.050485
0.051872
0.053467
0.05486
0.056156
0.057254
0.058162
0.05895
0.05993
0.060922
0.061839
0.062644
0.063
0.062838
0.062219
0.06113
0.059938
0.058892
0.058186
0.058
0.05813
0.058541
0.0589
0.0591
0.059074
0.058769
0.058372
0.05797
0.0577
0.0576
0.0577
0.0579
0.058103
0.0584
0.058601
0.058801
0.059
0.0592
0.0595
0.059793
0.060483
0.061563
0.063332
0.065787
0.068844
0.072591
0.07646
0.080342
0.083945
0.087146
0.090228
0.093207
0.096283
0.099522
0.10274
0.10567
0.10816
0.10975
0.11046
0.11026
0.10939
0.10806
0.1068
0.10594
0.10572
0.10614
0.10695
0.10762
0.10779
0.10705
0.10522
0.10251
0.099225
0.095549
0.09187
0.088195
0.084718
0.081438
0.078354
0.075373
0.072396
0.069422
0.066154
0.062587
0.058454
0.053985
0.049161
0.044295
0.0395
0.034798
0.030388
0.026268
0.022494
0.019065
0.016043
0.013154
0.010524
0.0080405
0.0057968
0.0039427
0.0027232
0.0020672
0.0018
0.0016813
0.0013765
0.00064084
-0.00057199
-0.0022809
-0.0041741
-0.0060522
-0.0076315
-0.008816
-0.0096055
-0.010002
-0.0102
-0.0103
-0.0104
-0.010691
-0.011086
-0.011683
-0.01228
-0.012781
-0.013
-0.012628
-0.01179
-0.010319
-0.0085651
-0.0067424
-0.0050498
-0.003616
-0.0024868
-0.0014425
-0.00034359
0.000998
0.0024877
0.0041724
0.0059064
0.0076629
0.0093526
0.011042
0.012752
0.014644
0.016628
0.018718
0.020582
0.022168
0.023336
0.024016
0.024303
0.0245
0.0246
0.0247
0.0249
0.025197
0.025499
0.025698
0.0258
0.0258
0.0257
0.025418
0.024842
0.023876
0.022136
0.019607
0.016122
0.011709
0.0066799
0.0011456
-0.004418
-0.0099243
-0.015138
-0.019908
-0.024086
-0.027676
-0.030505
-0.032797
-0.034793
-0.036536
-0.038258
-0.039944
-0.041609
-0.043201
-0.044566
-0.045643
-0.046534
-0.047221
-0.047915
-0.048409
-0.048701
-0.0488
-0.048499
-0.048101
-0.0476
-0.0474
-0.0475
-0.048075
-0.048956
-0.050049
-0.051249
-0.052239
-0.05306
-0.053487
-0.0535
-0.052871
-0.051553
-0.049172
-0.045871
-0.041681
-0.036893
-0.031934
-0.026855
-0.021796
-0.016533
-0.010647
-0.003877
0.0043144
0.014096
0.025554
0.038687
0.053371
0.069139
0.085425
0.10085
0.11372
0.12175
0.1223
0.11282
0.091261
0.056669
0.0098476
-0.046161
-0.10635
-0.16495
-0.21654
-0.25735
-0.28544
-0.3016
-0.308
-0.30729
-0.30187
-0.29325
-0.28156
-0.26657
-0.24722
-0.22324
-0.19472
-0.16306
-0.13041
-0.099105
-0.071459
-0.048953
-0.032175
-0.020789
-0.013799
-0.0097512
-0.0073656
-0.0057791
-0.0044012
-0.0029034
-0.0013138
0.00037576
0.0018588
0.0032412
0.0042137
0.0046
0.0041882
0.0030887
0.0013964
-0.00058975
-0.0026776
-0.0044716
-0.0058709
-0.0069722
-0.0079666
-0.0091424
-0.010798
-0.012869
-0.015156
-0.017268
-0.018811
-0.019567
-0.019536
-0.018882
-0.017714
-0.016622
-0.015792
-0.0153
-0.015236
-0.015642
-0.016328
-0.01722
-0.018279
-0.019407
-0.020832
-0.022675
-0.02542
-0.029168
-0.03411
-0.039899
-0.046068
-0.051699
-0.056215
-0.059159
-0.060614
-0.061
-0.0608
-0.060899
-0.061788
-0.063764
-0.066535
-0.069514
-0.072123
-0.073752
-0.074393
-0.073946
-0.073047
-0.072144
-0.0718
-0.072041
-0.072725
-0.073626
-0.0742
-0.073992
-0.072893
-0.070892
-0.068452
-0.065911
-0.063816
-0.062374
-0.061415
-0.060963
-0.060568
-0.059937
-0.059022
-0.057715
-0.056429
-0.055339
-0.0547
-0.054705
-0.055216
-0.055711
-0.0559
-0.055387
-0.053887
-0.051598
-0.048717
-0.045834
-0.043245
-0.04124
-0.039925
-0.039123
-0.038722
-0.038041
-0.036901
-0.034786
-0.031582
-0.027448
-0.022506
-0.017262
-0.012358
-0.0081062
-0.0047028
-0.0021722
-0.00029125
0.001145
0.002432
0.003729
0.0048827
0.0057427
0.0059796
0.0053111
0.0037529
0.0013082
-0.0014714
-0.0043376
-0.0067123
-0.0087721
-0.010467
-0.012366
-0.014869
-0.018365
-0.022748
-0.027818
-0.032885
-0.03756
-0.041149
-0.04385
-0.045746
-0.047338
-0.049304
-0.051662
-0.054541
-0.057427
-0.059954
-0.061444
-0.06184
-0.061276
-0.060113
-0.058977
-0.058343
-0.058243
-0.058796
-0.059599
-0.060158
-0.06006
-0.059218
-0.057881
-0.05648
-0.055654
-0.055752
-0.056924
-0.059055
-0.06144
-0.06359
-0.064725
-0.064669
-0.063341
-0.061133
-0.058346
-0.055568
-0.053187
-0.051201
-0.049709
-0.048219
-0.046636
-0.044656
-0.042098
-0.039026
-0.035847
-0.03294
-0.03071
-0.029441
-0.0292
-0.029727
-0.030807
-0.031727
-0.032375
-0.032352
-0.031845
-0.031248
-0.03075
-0.03044
-0.030119
-0.029034
-0.026457
-0.021422
-0.013354
-0.0019574
0.012242
0.028228
0.044339
0.058493
0.068774
0.073327
0.070561
0.059038
0.037518
0.0055292
-0.036209
-0.085621
-0.13887
-0.19126
-0.23816
-0.27593
-0.30295
-0.31919
-0.32637
-0.32662
-0.32188
-0.31327
-0.30109
-0.28499
-0.26467
-0.24026
-0.21276
-0.18361
-0.15501
-0.12902
-0.10728
-0.090994
-0.080232
-0.074621
-0.073
-0.074047
-0.076215
-0.07844
-0.079738
-0.079775
-0.078688
-0.076786
-0.074902
-0.073458
-0.073104
-0.07405
-0.075959
-0.078755
-0.081732
-0.084311
-0.085799
-0.086103
-0.085224
-0.083539
-0.08145
-0.07984
-0.078915
-0.0787
-0.0788
-0.078629
-0.077516
-0.075233
-0.071894
-0.067944
-0.064226
-0.061494
-0.060239
-0.060505
-0.062063
-0.06425
-0.066491
-0.06824
-0.069291
-0.069635
-0.0695
-0.069166
-0.068768
-0.068371
-0.067957
-0.06693
-0.065179
-0.062452
-0.058839
-0.054751
-0.050595
-0.047033
-0.044266
-0.042286
-0.040698
-0.039011
-0.036536
-0.033076
-0.02843
-0.023171
-0.017986
-0.013376
-0.010041
-0.007984
-0.0070416
-0.0067281
-0.0061615
-0.0047709
-0.002199
0.0015711
0.0061135
0.010724
0.014882
0.018315
0.020947
0.023135
0.025359
0.02812
0.031906
0.036756
0.042363
0.04823
0.053662
0.058235
0.061663
0.06422
0.066502
0.069326
0.073239
0.078436
0.084712
0.091471
0.097823
0.10309
0.10687
0.10937
0.11116
0.11323
0.11617
0.1203
0.12544
0.1309
0.13601
0.14006
0.14286
0.14441
0.14507
0.14548
0.14576
0.14615
0.14657
0.14645
0.14541
0.14318
0.13973
0.1351
0.12986
0.12432
0.11906
0.11425
0.11001
0.10624
0.10248
0.098593
0.094195
0.089296
0.084022
0.078557
0.073402
0.06905
0.065681
0.0632
0.06151
0.060018
0.058435
0.056556
0.054086
0.05151
0.048908
0.046882
0.045545
0.0451
0.045267
0.045769
0.046
0.045483
0.043739
0.04088
0.037142
0.033056
0.029338
0.026258
0.024013
0.022431
0.021179
0.019987
0.018764
0.017397
0.016235
0.015573
0.0155
0.01606
0.017158
0.018352
0.019116
0.019089
0.018278
0.016779
0.015287
0.014298
0.014
0.014492
0.01548
0.016677
0.017288
0.017218
0.01617
0.014313
0.011951
0.0095494
0.0073295
0.0057876
0.0047555
0.0043353
0.0040233
0.0037405
0.003284
0.0027502
0.0023
0.0023
0.0028264
0.0038316
0.0048882
0.0055
0.005241
0.003941
0.001718
-0.00087353
-0.0032309
-0.0046488
-0.0046613
-0.0029904
0.00055049
0.0052725
0.010734
0.015887
0.019941
0.022611
0.023899
0.024596
0.025579
0.028323
0.03361
0.041967
0.053292
0.066743
0.081043
0.094373
0.1053
0.11209
0.11347
0.10847
0.096068
0.0752
0.044773
0.0044626
-0.045013
-0.10135
-0.16036
-0.21702
-0.26662
-0.30545
-0.33215
-0.3473
-0.35339
-0.3536
-0.35087
-0.34692
-0.34189
-0.33479
-0.32375
-0.30713
-0.28428
-0.25574
-0.2233
-0.18942
-0.15705
-0.12853
-0.10523
-0.087567
-0.075053
-0.066516
-0.060397
-0.055692
-0.051416
-0.047327
-0.043612
-0.04085
-0.039513
-0.03989
-0.042045
-0.045348
-0.04929
-0.053115
-0.056136
-0.057811
-0.058168
-0.057129
-0.055147
-0.052755
-0.050366
-0.048317
-0.046801
-0.045733
-0.045041
-0.04435
-0.043334
-0.041601
-0.039179
-0.035967
-0.032391
-0.028813
-0.025653
-0.023378
-0.021795
-0.020902
-0.020207
-0.019414
-0.018035
-0.015967
-0.013212
-0.010032
-0.0068524
-0.0041299
-0.0020871
-0.00094203
-0.00042946
-3.2066e-005
0.00062474
0.0019444
0.0041541
0.0070602
0.010396
0.013625
0.016411
0.018394
0.01969
0.020584
0.021415
0.022506
0.02417
0.026386
0.029126
0.03221
0.035498
0.038552
0.041415
0.044
0.046274
0.048664
0.051048
0.053533
0.056119
0.058702
0.060987
0.063075
0.064962
0.066849
0.068923
0.071492
0.074551
0.07811
0.081968
0.086042
0.08994
0.093714
0.097328
0.10081
0.10426
0.10773
0.11136
0.11523
0.11935
0.12397
0.12914
0.13488
0.14134
0.14818
0.1551
0.16172
0.16752
0.17251
0.17643
0.17956
0.18202
0.18397
0.18543
0.18621
0.18629
0.18548
0.18368
0.18089
0.17691
0.17166
0.16512
0.15709
0.14779
0.13739
0.12637
0.11524
0.10467
0.095059
0.086646
0.079408
0.073252
0.067949
0.06325
0.058905
0.054829
0.051004
0.047533
0.044455
0.04182
0.039674
0.038176
0.037116
0.036555
0.036374
0.0362
0.035872
0.035371
0.034636
0.033646
0.032559
0.031781
0.031505
0.031915
0.032923
0.03442
0.035908
0.037399
0.038692
0.039884
0.041168
0.042947
0.045408
0.048557
0.052316
0.056197
0.05972
0.062443
0.064293
0.065347
0.065781
0.06597
0.066261
0.066757
0.06761
0.068858
0.070301
0.071891
0.073581
0.075176
0.076665
0.078115
0.079543
0.081033
0.082518
0.083985
0.085273
0.086263
0.087023
0.0875
0.087813
0.088317
0.089022
0.090118
0.091412
0.092904
0.094394
0.09559
0.096491
0.0969
0.096803
0.096418
0.095635
0.09494
0.094321
0.094
0.0939
0.0941
0.09436
0.094679
0.0949
0.095174
0.095457
0.095809
0.096247
0.096849
0.097592
0.098423
0.099619
0.10109
0.10287
0.10496
0.10716
0.10926
0.11133
0.11309
0.11467
0.11574
0.11621
0.11599
0.11507
0.11336
0.11128
0.10909
0.107
0.10541
0.10421
0.10351
0.10321
0.103
0.10272
0.10204
0.10116
0.10007
0.098971
0.098159
0.097532
0.097134
0.096822
0.09654
0.096044
0.09529
0.094495
0.0936
0.092898
0.092359
0.091858
0.091424
0.09093
0.090331
0.089639
0.088744
0.087743
0.086737
0.085654
0.084658
0.083769
0.082865
0.081875
0.080781
0.079683
0.078493
0.077499
0.076803
0.0765
0.076598
0.07689
0.077196
0.0772
0.076821
0.075963
0.074769
0.073497
0.072208
0.070827
0.069171
0.067016
0.064377
0.061268
0.057945
0.054764
0.051981
0.04995
0.048654
0.048046
0.048
0.048
0.047971
0.047562
0.047049
0.046443
0.0462
0.046525
0.047563
0.049285
0.051605
0.054807
0.058908
0.064202
0.071283
0.080541
0.092564
0.10735
0.125
0.14465
0.16502
0.18437
0.20006
0.20947
0.20924
0.19673
0.1697
0.12708
0.069886
0.0013942
-0.072984
-0.14667
-0.21323
-0.26733
-0.30643
-0.33057
-0.34222
-0.34485
-0.34202
-0.33625
-0.32835
-0.31765
-0.30264
-0.2819
-0.25484
-0.22225
-0.18638
-0.15008
-0.11647
-0.08807
-0.066112
-0.05086
-0.041308
-0.036075
-0.0333
-0.031709
-0.030318
-0.028831
-0.027142
-0.025446
-0.024147
-0.023136
-0.022608
-0.022672
-0.023342
-0.024582
-0.026272
-0.028301
-0.030221
-0.031847
-0.032859
-0.0332
-0.033008
-0.03245
-0.031805
-0.031211
-0.030653
-0.03002
-0.029123
-0.02776
-0.026038
-0.024051
-0.022291
-0.021042
-0.0208
-0.021349
-0.022766
-0.02456
-0.026238
-0.027418
-0.0279
-0.027595
-0.026697
-0.025704
-0.024806
-0.0245
-0.024881
-0.025864
-0.027147
-0.028349
-0.029369
-0.0297
-0.02963
-0.029131
-0.028464
-0.02783
-0.027321
-0.0271
-0.027
-0.0268
-0.02645
-0.025697
-0.024653
-0.023315
-0.021818
-0.020437
-0.019184
-0.018025
-0.01703
-0.016035
-0.014918
-0.0135
-0.011685
-0.0095995
-0.0074055
-0.005529
-0.0039622
-0.00298
-0.0023926
-0.0019932
-0.0013956
-0.000601
0.00059094
0.0019811
0.0035671
0.0050643
0.0063657
0.006984
0.0071
0.0065425
0.0054715
0.0041087
0.0025162
0.00085386
-0.00083265
-0.0027157
-0.0049205
-0.007698
-0.011091
-0.014927
-0.018908
-0.022386
-0.024945
-0.026057
-0.025824
-0.024518
-0.022659
-0.020872
-0.019306
-0.018117
-0.01693
-0.015194
-0.012656
-0.0091372
-0.0048454
-0.00016707
0.004497
0.0085553
0.011924
0.014303
0.015993
0.016994
0.017499
0.0176
0.017312
0.016634
0.015461
0.013607
0.011146
0.0081029
0.004744
0.0013485
-0.0020381
-0.0051173
-0.0079313
-0.010613
-0.013288
-0.01633
-0.019755
-0.02368
-0.027906
-0.032342
-0.036508
-0.040308
-0.04346
-0.045765
-0.047391
-0.048456
-0.049144
-0.049727
-0.050231
-0.050935
-0.05183
-0.052624
-0.05321
-0.0535
-0.053196
-0.052396
-0.051103
-0.049514
-0.047728
-0.045843
-0.043856
-0.041874
-0.039694
-0.037601
-0.035413
-0.033241
-0.031405
-0.02998
-0.029332
-0.029257
-0.029658
-0.03016
-0.030258
-0.029346
-0.027292
-0.024353
-0.020876
-0.017582
-0.015226
-0.014147
-0.014364
-0.015268
-0.015786
-0.014522
-0.010102
-0.0017715
0.010876
0.027335
0.04638
0.066159
0.084867
0.10047
0.11111
0.1156
0.1129
0.10189
0.081517
0.05098
0.010364
-0.038716
-0.093049
-0.14769
-0.19772
-0.23865
-0.2681
-0.28576
-0.29335
-0.29371
-0.28943
-0.2824
-0.27284
-0.26001
-0.24283
-0.22048
-0.1935
-0.16345
-0.13272
-0.10417
-0.080159
-0.062022
-0.050015
-0.043244
-0.040079
-0.038851
-0.038039
-0.036816
-0.034905
-0.032514
-0.030137
-0.028363
-0.027287
-0.027
-0.027503
-0.028596
-0.029887
-0.031474
-0.032963
-0.034458
-0.035572
-0.036284
-0.0364
-0.036122
-0.035725
-0.035327
-0.0352
-0.035463
-0.036199
-0.037196
-0.038182
-0.039123
-0.039654
-0.0399
-0.0399
-0.0398
-0.0398
-0.040041
-0.040678
-0.041575
-0.042597
-0.043434
-0.04382
-0.04379
-0.043174
-0.04246
-0.041672
-0.040882
-0.040273
-0.039685
-0.038885
-0.03799
-0.036994
-0.0362
-0.035703
-0.0356
-0.035988
-0.036679
-0.037474
-0.038268
-0.038882
-0.039189
-0.039114
-0.038831
-0.038158
-0.037266
-0.036193
-0.035206
-0.034215
-0.033384
-0.032485
-0.031541
-0.030354
-0.028814
-0.026974
-0.024887
-0.0228
-0.020809
-0.019055
-0.017572
-0.016078
-0.014592
-0.013003
-0.011421
-0.0099356
-0.0090655
-0.0086
-0.0086035
-0.0087
-0.0084914
-0.0073844
-0.0050935
-0.0015181
0.0033417
0.009193
0.015644
0.022198
0.02838
0.033976
0.038776
0.043076
0.046869
0.050627
0.05432
0.058011
0.061155
0.063527
0.064664
0.064648
0.06359
0.061843
0.059707
0.057417
0.055138
0.052652
0.049829
0.046478
0.042672
0.038233
0.033444
0.028272
0.022899
0.017516
0.012159
0.0068063
0.0014353
-0.0039326
-0.0094002
-0.014864
-0.020225
-0.025492
-0.030461
-0.03533
-0.040002
-0.044575
-0.04914
-0.053628
-0.057807
-0.06179
-0.065391
-0.068413
-0.071032
-0.073069
-0.074862
-0.076552
-0.078239
-0.080035
-0.08172
-0.083108
-0.083862
-0.083832
-0.082871
-0.081297
-0.079266
-0.07725
-0.075558
-0.074404
-0.073765
-0.073617
-0.073824
-0.07422
-0.074822
-0.075636
-0.076748
-0.078454
-0.080858
-0.083848
-0.08753
-0.091605
-0.095679
-0.099359
-0.10235
-0.10436
-0.10547
-0.106
-0.10609
-0.10618
-0.10666
-0.10745
-0.10852
-0.10964
-0.11053
-0.11108
-0.1111
-0.11074
-0.11034
-0.1102
-0.1108
-0.11219
-0.11437
-0.1171
-0.11989
-0.1223
-0.12402
-0.1248
-0.12478
-0.12414
-0.12324
-0.12236
-0.12158
-0.12098
-0.12048
-0.11999
-0.1196
-0.1193
-0.1194
-0.12
-0.1213
-0.12318
-0.12576
-0.12873
-0.13191
-0.1349
-0.1375
-0.13952
-0.14084
-0.14149
-0.1415
-0.14113
-0.14073
-0.14032
-0.1403
-0.14056
-0.14102
-0.14155
-0.14197
-0.14196
-0.14141
-0.14027
-0.13846
-0.1358
-0.13214
-0.1277
-0.12246
-0.11679
-0.11114
-0.1057
-0.10064
-0.09577
-0.090362
-0.083543
-0.074323
-0.061922
-0.045866
-0.026565
-0.0047003
0.01835
0.040624
0.059963
0.074123
0.080564
0.077158
0.061725
0.033084
-0.009294
-0.063956
-0.12779
-0.19566
-0.26158
-0.31945
-0.36498
-0.39632
-0.41407
-0.42055
-0.4191
-0.41241
-0.4024
-0.38944
-0.37291
-0.35179
-0.32538
-0.29385
-0.25813
-0.22018
-0.18231
-0.14696
-0.11624
-0.091377
-0.072533
-0.059076
-0.049827
-0.043105
-0.037652
-0.032586
-0.027321
-0.021858
-0.01639
-0.011213
-0.0069145
-0.0036961
-0.0015608
-0.0005395
7.8942e-005
0.00074447
0.0021592
0.0047484
0.0086325
0.013637
0.019233
0.024777
0.029737
0.033603
0.036317
0.038103
0.039439
0.040733
0.042298
0.044229
0.04628
0.048134
0.049496
0.050228
0.050516
0.050708
0.051461
0.052999
0.05582
0.059534
0.0637
0.067459
0.070021
0.070698
0.069303
0.065932
0.061368
0.05669
0.052781
0.05054
0.050278
0.051503
0.053666
0.056083
0.058005
0.059052
0.0593
0.0592
0.0592
0.059615
0.060634
0.062121
0.063711
0.065104
0.065952
0.0662
0.0661
0.066
0.066334
0.0673
0.068851
0.070871
0.072911
0.074578
0.075651
0.076119
0.076516
0.077027
0.078144
0.079947
0.082644
0.085928
0.089506
0.092984
0.096166
0.098853
0.10115
0.10314
0.10504
0.10701
0.10909
0.11128
0.11347
0.11557
0.11735
0.11897
0.12049
0.1222
0.12425
0.12689
0.12992
0.13336
0.13684
0.14017
0.1431
0.14564
0.14793
0.15008
0.15217
0.15426
0.15634
0.15831
0.15985
0.1606
0.16016
0.15841
0.15538
0.15129
0.14651
0.14155
0.13678
0.13231
0.12823
0.12426
0.1201
0.11534
0.11009
0.10453
0.099147
0.094337
0.090485
0.087932
0.08638
0.085732
0.08532
0.085037
0.084645
0.084128
0.0841
0.084851
0.086685
0.089818
0.093889
0.098367
0.1025
0.10577
0.10761
0.10799
0.10689
0.10474
0.10192
0.098627
0.095134
0.091558
0.087981
0.084304
0.080831
0.077457
0.074279
0.071399
0.068618
0.065637
0.062268
0.058406
0.053949
0.049184
0.044416
0.03992
0.036202
0.033353
0.031234
0.029516
0.027964
0.026081
0.023736
0.020929
0.017845
0.014981
0.012646
0.011048
0.010443
0.010543
0.011045
0.011447
0.0115
0.01114
0.01044
0.0097514
0.0092707
0.0093199
0.010159
0.011567
0.013471
0.015566
0.017745
0.019728
0.021313
0.022503
0.023397
0.024095
0.024984
0.026067
0.027453
0.029227
0.031115
0.032922
0.034443
0.035272
0.035787
0.035978
0.03633
0.037183
0.038911
0.041212
0.043999
0.046888
0.049365
0.051204
0.052399
0.053086
0.053673
0.054604
0.056173
0.058427
0.061321
0.064403
0.067387
0.070048
0.072205
0.073972
0.075462
0.07695
0.078751
0.080742
0.083232
0.085817
0.088399
0.090684
0.092481
0.09378
0.094587
0.095284
0.095976
0.096658
0.097654
0.098726
0.099827
0.10057
0.1008
0.10046
0.09967
0.098715
0.098042
0.097945
0.098753
0.10055
0.10302
0.10602
0.109
0.11168
0.11409
0.11628
0.11826
0.12025
0.12213
0.12368
0.12443
0.12426
0.12292
0.12072
0.11802
0.11524
0.11317
0.1122
0.1129
0.11548
0.12034
0.12765
0.13762
0.15056
0.16655
0.18542
0.20631
0.22809
0.24859
0.26517
0.27475
0.27428
0.26105
0.23318
0.19025
0.13375
0.067141
-0.0043554
-0.0743
-0.13681
-0.18706
-0.22305
-0.24508
-0.25543
-0.25711
-0.25314
-0.24535
-0.23451
-0.22007
-0.20132
-0.17744
-0.14863
-0.11584
-0.081043
-0.046501
-0.014965
0.011715
0.03237
0.046805
0.055703
0.060341
0.062084
0.062114
0.061343
0.060437
0.059807
0.059871
0.060541
0.061712
0.062839
0.063242
0.062467
0.060091
0.056423
0.052349
0.048673
0.046341
0.045868
0.047211
0.049654
0.051997
0.05335
0.052903
0.050778
0.047668
0.044632
0.042844
0.042842
0.044824
0.047839
0.050995
0.053127
0.053389
0.051767
0.048673
0.044996
0.041914
0.040014
0.0395
0.04008
0.041075
0.0417
0.041437
0.040104
0.037838
0.035251
0.032939
0.031384
0.0309
0.031328
0.032279
0.033259
0.033641
0.033046
0.031445
0.02931
0.027171
0.025608
0.0251
0.025705
0.027141
0.028705
0.029773
0.029775
0.028585
0.026253
0.023258
0.020379
0.018037
0.016672
0.0162
0.0161
0.015795
0.014794
0.012508
0.0090366
0.0046694
0.00029816
-0.0036064
-0.0063277
-0.0077634
-0.0083807
-0.0085743
-0.0089723
-0.0099186
-0.011484
-0.013267
-0.014795
-0.015577
-0.015032
-0.013162
-0.010469
-0.0074302
-0.0046909
-0.0028127
-0.0015061
-0.00062081
0.00054776
0.0025146
0.0056007
0.00974
0.014647
0.019741
0.024664
0.02881
0.032247
0.034986
0.03717
0.039045
0.040731
0.042218
0.043103
0.0431
0.041912
0.039439
0.035882
0.031426
0.026657
0.021888
0.017401
0.013309
0.0093346
0.0052893
0.000751
-0.0046275
-0.010758
-0.017313
-0.023875
-0.029921
-0.035076
-0.039184
-0.042459
-0.045235
-0.048012
-0.051037
-0.054461
-0.05793
-0.061251
-0.063898
-0.065699
-0.066537
-0.0666
-0.0663
-0.066
-0.066005
-0.066628
-0.067738
-0.069241
-0.070925
-0.072411
-0.073401
-0.0737
-0.073208
-0.07212
-0.070834
-0.069443
-0.068244
-0.067052
-0.065763
-0.064018
-0.061481
-0.057986
-0.053566
-0.048526
-0.043521
-0.038976
-0.03522
-0.032401
-0.030124
-0.028042
-0.025757
-0.023169
-0.020531
-0.018289
-0.016917
-0.0166
-0.017191
-0.018365
-0.019268
-0.019376
-0.018418
-0.016379
-0.013781
-0.011219
-0.009448
-0.0083877
-0.0077908
-0.0067788
-0.0040788
0.0014914
0.010813
0.024182
0.04102
0.060066
0.079277
0.096293
0.10885
0.11508
0.11363
0.10333
0.083443
0.05352
0.014096
-0.033048
-0.084847
-0.13704
-0.18531
-0.22588
-0.25649
-0.27668
-0.28733
-0.29028
-0.28751
-0.28024
-0.26906
-0.25403
-0.23507
-0.21239
-0.18692
-0.16004
-0.13359
-0.10926
-0.088561
-0.072211
-0.060599
-0.053119
-0.049279
-0.048
-0.048495
-0.049982
-0.051675
-0.052881
-0.0532
-0.052451
-0.050789
-0.048623
-0.046514
-0.044866
-0.044112
-0.044158
-0.044764
-0.045264
-0.045252
-0.044234
-0.042325
-0.039872
-0.037691
-0.03619
-0.0359
-0.036522
-0.037722
-0.038694
-0.038669
-0.03735
-0.034644
-0.030946
-0.027174
-0.023834
-0.021613
-0.020579
-0.0204
-0.0205
-0.020187
-0.018869
-0.016368
-0.012985
-0.0093081
-0.0060264
-0.0036274
-0.0023123
-0.0019036
-0.0019
-0.0017204
-0.00076275
0.00098528
0.003456
0.0058612
0.0077248
0.0082
0.0071508
0.0045104
0.00079955
-0.0031818
-0.006746
-0.0092738
-0.01066
-0.011247
-0.011641
-0.012618
-0.014558
-0.017622
-0.021313
-0.024659
-0.026796
-0.027047
-0.024922
-0.020955
-0.016059
-0.011324
-0.0077013
-0.0057754
-0.0054
-0.0059069
-0.0063
-0.0057995
-0.0039166
-0.00064744
0.0034191
0.0072078
0.010129
0.011678
0.011821
0.011141
0.010337
0.0101
0.010836
0.012538
0.01496
0.017642
0.020271
0.022401
0.024067
0.02536
0.026552
0.027887
0.029772
0.032093
0.034787
0.037291
0.039145
0.04004
0.039743
0.038472
0.036457
0.034184
0.032201
0.030533
0.029042
0.027442
0.025241
0.022038
0.017654
0.012382
0.0065202
0.00075523
-0.0044216
-0.0088088
-0.012506
-0.015691
-0.018764
-0.022124
-0.025972
-0.030327
-0.034699
-0.038733
-0.041983
-0.044071
-0.045065
-0.0453
-0.0453
-0.0454
-0.046004
-0.047048
-0.04834
-0.049593
-0.050251
-0.050032
-0.048964
-0.047262
-0.04537
-0.043792
-0.042543
-0.041774
-0.041268
-0.040565
-0.039455
-0.037942
-0.035946
-0.033962
-0.03208
-0.030693
-0.0299
-0.0295
-0.029007
-0.028027
-0.026169
-0.02312
-0.01927
-0.015003
-0.010911
-0.0074822
-0.0052029
-0.0040481
-0.0039765
-0.0044366
-0.0050307
-0.0054
-0.0052466
-0.0044901
-0.003242
-0.0016917
-0.00025139
0.00079014
0.0013528
0.0012601
0.00073874
-0.0002721
-0.0013962
-0.0024884
-0.0035837
-0.0045523
-0.0054592
-0.0064369
-0.0074438
-0.0084318
-0.0092142
-0.0096
-0.009494
-0.0090952
-0.0083989
-0.0079018
-0.0075004
-0.0075
-0.0074
-0.0072122
-0.0066339
-0.005371
-0.0035
-0.0013357
0.00086968
0.0028912
0.0043087
0.0051694
0.0055
0.0054
0.0053
0.0054
0.0058003
0.0066027
0.0075978
0.0086453
0.0094871
0.010141
0.010547
0.0107
0.0106
0.010369
0.0099501
0.0092716
0.0084561
0.0073396
0.0059299
0.0041254
0.0019261
-0.00066796
-0.0035524
-0.0065333
-0.0094122
-0.011796
-0.013589
-0.014592
-0.014709
-0.014122
-0.012956
-0.01137
-0.0094946
-0.0074239
-0.0051512
-0.0024871
0.00055841
0.0040847
0.0079546
0.011929
0.015805
0.019366
0.022293
0.024668
0.026599
0.028284
0.030022
0.031905
0.034137
0.036624
0.039232
0.042121
0.045024
0.048111
0.051409
0.054907
0.058785
0.063075
0.067874
0.073362
0.079739
0.087211
0.095872
0.10601
0.11763
0.13073
0.14512
0.16031
0.17505
0.18779
0.19626
0.19794
0.19045
0.17191
0.14132
0.099201
0.047917
-0.0084994
-0.0651
-0.11646
-0.15836
-0.18846
-0.20661
-0.21459
-0.21507
-0.21053
-0.20299
-0.19292
-0.17989
-0.16316
-0.14195
-0.11627
-0.086877
-0.055095
-0.023036
0.0072438
0.034101
0.056286
0.073131
0.084751
0.09165
0.094907
0.0957
0.095305
0.094606
0.0944
0.095165
0.096829
0.099099
0.10149
0.10324
0.1039
0.10338
0.10202
0.10049
0.09962
0.10008
0.10201
0.10522
0.1087
0.11161
0.11331
0.11336
0.11213
0.11033
0.10901
0.10896
0.11037
0.11294
0.11624
0.11908
0.12096
0.12128
0.12003
0.11781
0.11543
0.11378
0.11361
0.11513
0.11802
0.1216
0.12498
0.12728
0.12829
0.12802
0.12666
0.12468
0.12241
0.11995
0.11709
0.11357
0.10881
0.10274
0.095451
0.087426
0.079736
0.073174
0.068486
0.065965
0.0655
0.066236
0.067443
0.068
0.067493
0.065675
0.062953
0.059867
0.057112
0.055189
0.054148
0.0538
0.053581
0.052957
0.051431
0.04902
0.046029
0.04316
0.041088
0.0404
0.040995
0.042581
0.044273
0.045291
0.044938
0.043004
0.039768
0.035891
0.032289
0.029715
0.028426
0.028565
0.029406
0.030229
0.030547
0.029767
0.028022
0.025581
0.023084
0.021248
0.020442
0.020645
0.021515
0.022679
0.023541
0.0238
0.023444
0.022769
0.0223
0.022537
0.02368
0.025706
0.028201
0.030767
0.032534
0.0332
0.032484
0.030486
0.027404
0.023631
0.019559
0.015291
0.010924
0.006167
0.00082562
-0.005099
-0.011638
-0.018393
-0.025054
-0.031171
-0.036422
-0.040926
-0.044779
-0.048181
-0.051721
-0.055452
-0.059573
-0.06385
-0.067981
-0.071426
-0.073824
-0.074998
-0.075081
-0.074228
-0.073209
-0.072366
-0.0722
-0.072746
-0.073986
-0.075589
-0.07737
-0.078954
-0.080437
-0.08173
-0.08312
-0.084713
-0.086503
-0.088191
-0.089784
-0.090882
-0.091498
-0.0916
-0.0915
-0.0915
-0.091875
-0.092826
-0.094394
-0.096456
-0.098816
-0.1011
-0.10306
-0.10448
-0.10552
-0.10631
-0.10715
-0.10854
-0.11069
-0.11357
-0.11703
-0.12077
-0.12434
-0.12742
-0.12967
-0.13117
-0.13193
-0.13243
-0.13282
-0.13344
-0.13456
-0.13596
-0.13765
-0.13913
-0.14042
-0.1411
-0.1413
-0.1413
-0.1413
-0.14179
-0.14287
-0.14455
-0.14634
-0.14795
-0.14906
-0.14959
-0.1496
-0.1495
-0.14984
-0.1509
-0.15289
-0.15564
-0.15888
-0.16216
-0.16524
-0.16797
-0.1705
-0.17298
-0.17586
-0.17907
-0.18276
-0.18643
-0.18998
-0.1928
-0.19482
-0.19606
-0.19672
-0.19723
-0.19774
-0.19854
-0.19974
-0.20092
-0.20181
-0.2019
-0.20119
-0.1995
-0.19702
-0.19414
-0.19135
-0.18876
-0.18666
-0.18487
-0.18299
-0.18082
-0.17809
-0.17474
-0.17088
-0.16681
-0.163
-0.15949
-0.15657
-0.1541
-0.15217
-0.15058
-0.14925
-0.14805
-0.147
-0.14636
-0.14623
-0.1469
-0.14867
-0.15135
-0.15464
-0.15792
-0.16065
-0.16237
-0.16279
-0.16183
-0.15991
-0.15712
-0.15403
-0.15105
-0.14817
-0.14539
-0.14281
-0.13993
-0.13676
-0.13299
-0.12883
-0.12446
-0.12008
-0.11617
-0.11295
-0.11035
-0.10813
-0.10625
-0.10417
-0.10191
-0.09943
-0.096845
-0.094351
-0.092377
-0.090997
-0.090247
-0.09
-0.089859
-0.089457
-0.088488
-0.086819
-0.084599
-0.082211
-0.080177
-0.079045
-0.0788
-0.07944
-0.080555
-0.081531
-0.0821
-0.081785
-0.080774
-0.07918
-0.077491
-0.076001
-0.075104
-0.0748
-0.0748
-0.0748
-0.074136
-0.072681
-0.070331
-0.067275
-0.063806
-0.060503
-0.057671
-0.055355
-0.05344
-0.051584
-0.049541
-0.046994
-0.043956
-0.040578
-0.037048
-0.033465
-0.030096
-0.026754
-0.023481
-0.020191
-0.017151
-0.014372
-0.011823
-0.009337
-0.006286
-0.001806
0.0047834
0.014356
0.027094
0.042672
0.060396
0.078882
0.097049
0.11353
0.12695
0.13583
0.13841
0.13228
0.11484
0.083839
0.037947
-0.021864
-0.092284
-0.16754
-0.24046
-0.30399
-0.35271
-0.38439
-0.3996
-0.40162
-0.39457
-0.38239
-0.36756
-0.35097
-0.33227
-0.31043
-0.28456
-0.25479
-0.22218
-0.18841
-0.1558
-0.1266
-0.10242
-0.084005
-0.071174
-0.063122
-0.058575
-0.056047
-0.054468
-0.052868
-0.050569
-0.047282
-0.043108
-0.03834
-0.033665
-0.029578
-0.026662
-0.025035
-0.0245
-0.0245
-0.024146
-0.02283
-0.019873
-0.015385
-0.0097719
-0.0039725
0.0010699
0.0046338
0.0065857
0.0071
0.0071
0.0075306
0.0091761
0.012196
0.016397
0.021136
0.025438
0.028509
0.030039
0.030052
0.029118
0.028244
0.028115
0.029385
0.031811
0.034798
0.037354
0.03881
0.038689
0.037185
0.034998
0.033009
0.0321
0.032675
0.034736
0.037603
0.040409
0.042345
0.042724
0.04162
0.039375
0.03687
0.034904
0.034359
0.035409
0.037829
0.040809
0.043649
0.045473
0.046049
0.045508
0.044463
0.043552
0.043452
0.044539
0.046712
0.049333
0.051757
0.053386
0.053889
0.053257
0.052041
0.050977
0.050808
0.051954
0.054364
0.057453
0.060528
0.062705
0.0633
0.062317
0.060045
0.057263
0.054569
0.052461
0.051043
0.050232
0.049638
0.049052
0.04826
0.04736
0.046818
0.046958
0.048243
0.050612
0.054008
0.057946
0.06182
0.065202
0.06774
0.069445
0.070383
0.071174
0.072337
0.074303
0.077041
0.080433
0.083912
0.08717
0.089813
0.091878
0.093357
0.094639
0.095724
0.096615
0.097305
0.0976
0.0971
0.095712
0.093339
0.089879
0.08572
0.081062
0.076188
0.071506
0.067114
0.062954
0.058961
0.054919
0.050552
0.045907
0.041131
0.036623
0.032768
0.029853
0.028077
0.027199
0.0269
0.026655
0.026087
0.02484
0.023148
0.021221
0.019576
0.01867
0.018724
0.019898
0.021813
0.02391
0.02577
0.026716
0.026478
0.02516
0.023067
0.02088
0.019197
0.0185
0.018892
0.020077
0.021662
0.022876
0.0232
0.022257
0.020321
0.018035
0.015998
0.014911
0.015225
0.016836
0.019155
0.021572
0.023642
0.024979
0.02565
0.026204
0.026995
0.028419
0.03076
0.033729
0.036808
0.039722
0.041808
0.042836
0.042874
0.042023
0.040733
0.039545
0.0388
0.039023
0.040045
0.041639
0.043329
0.04451
0.0449
0.044201
0.043011
0.042001
0.042371
0.044981
0.050926
0.060813
0.074754
0.092186
0.11206
0.13256
0.15162
0.16692
0.17635
0.17763
0.16871
0.14797
0.11423
0.068093
0.012141
-0.049337
-0.11083
-0.16662
-0.21242
-0.2459
-0.26731
-0.27859
-0.28259
-0.28185
-0.27799
-0.27081
-0.25913
-0.24154
-0.21685
-0.18566
-0.14971
-0.11206
-0.076233
-0.045562
